bandpass_filtered_signal_ch2
0
-8.57127741418607e-13
-3.93780348925861e-12
-8.97582279708147e-12
-1.47267671502368e-11
-2.01464348985562e-11
-2.41235969237643e-11
-2.61461293741038e-11
-2.72065357395797e-11
-2.78850333588697e-11
-2.69746608359901e-11
-2.63439307401901e-11
-3.06942169001016e-11
-3.66871634964798e-11
-4.53817014001242e-11
-5.15953201926627e-11
-4.46957837899082e-11
-4.40831011009676e-11
-5.51633956805948e-11
-5.78140332944322e-11
-4.61942775881894e-11
-2.85433208872994e-11
-2.37570343125966e-12
2.97407671144319e-11
7.35251639815024e-11
1.31784861382065e-10
1.28136532751725e-10
5.03915041369162e-11
-1.52522419418342e-12
3.8311287136006e-13
1.61982973887478e-11
2.15718492033209e-11
7.28410992779221e-12
-3.58149859243479e-12
-6.09114050009813e-12
-1.50180569804449e-11
1.56326681611092e-12
3.50177080287381e-11
4.72369851219943e-11
3.56351076662607e-11
6.06221998176774e-12
-5.0714306318273e-11
-1.21683916288535e-10
-1.56581736349099e-10
-1.48998789203925e-10
-6.95507206022794e-11
3.44083814836251e-11
9.01922238858667e-11
1.64896836460474e-10
2.60728135020145e-10
3.58831117100181e-10
3.07798449960655e-10
7.63408977863142e-11
-3.69253328460376e-11
-1.06385266321221e-10
-1.84507214625053e-10
-2.50795923731377e-10
-4.23440060593215e-10
-4.06972945127693e-10
-1.82506581206707e-10
6.07156628085246e-11
2.80579783333093e-10
3.98123901845782e-10
6.56255884751079e-10
1.02123294442141e-09
7.81239954158457e-10
8.17207971300723e-11
-3.11479777478785e-10
-4.34021048541789e-10
-3.79948192005528e-10
-3.31845104466978e-10
-3.02035511402155e-10
-2.850148349036e-10
-4.84889688741312e-10
-6.01314522318765e-10
-4.72919504244752e-10
-1.87922952971513e-10
7.66702358863139e-11
2.54480992470233e-10
3.2528821573179e-10
1.60229659265783e-10
-8.65978773622771e-11
-2.6038836109241e-10
-4.65444939491049e-10
-5.16430646312992e-10
-3.33826929836528e-10
6.65179436591023e-11
5.80973129717929e-10
8.26202676448798e-10
8.006171833408e-10
7.38143058799297e-10
6.29759799482588e-10
3.43204003716533e-10
1.90753193630163e-10
6.3112662292716e-11
-2.21187699302352e-11
9.55227896394468e-11
2.35727834966296e-10
-3.39644871350821e-10
-1.4069837814049e-09
-1.46487498176653e-09
-1.06561690829161e-09
-6.61123899341617e-10
-4.21106931775634e-11
7.35288179917915e-10
1.22059780180257e-09
1.39089104508629e-09
1.29297729124564e-09
7.74394182265854e-10
5.29345192292129e-10
2.17902988466615e-11
-4.18772508621755e-10
-6.88142456933617e-10
-9.12710729270719e-10
-7.33650990007335e-10
-5.89741213149501e-10
-3.54591966240148e-10
4.0196106678554e-11
5.07246992604203e-10
5.36295674719174e-10
-3.65320890103864e-11
-6.79542339446753e-10
-6.55570525391917e-10
-3.67335811195753e-10
-5.58660085980774e-10
-1.27152113268335e-09
-1.96935218728497e-09
-1.81339182495246e-09
-1.16297717381927e-09
2.2077931062265e-10
2.02252102798204e-09
3.06274905371974e-09
3.31118581583525e-09
2.87147726315537e-09
1.51594756357381e-09
-2.8216304706234e-11
-1.27710968807963e-09
-2.78766897035691e-09
-3.2299943566402e-09
-2.08123947088863e-09
-1.80650479559311e-10
1.16915789988481e-09
1.22027479925067e-09
1.80233407957273e-09
2.97114509871418e-09
2.90753045325913e-09
1.50322442540129e-09
8.07776972104351e-10
1.25790789813085e-09
8.17719748628237e-10
-8.81480610264644e-10
-2.10901746865541e-09
-3.11908526075647e-09
-3.60996638541583e-09
-1.6343299935076e-09
1.07928561717014e-09
2.31788122801565e-09
1.71744354309292e-09
5.59401084716345e-10
-1.6111214292111e-10
-8.80879492483158e-10
-1.27833407640078e-09
-1.32258020479805e-09
-1.54943254191277e-09
-1.81950047472151e-09
-1.62408447599882e-09
-1.91883684550176e-09
-3.06496681174703e-09
-3.39790680213608e-09
-2.50115422157424e-09
-9.37203142485277e-10
1.04352525704837e-09
2.31054234500595e-09
3.16412420862207e-09
5.29722103609323e-09
5.826984602285e-09
3.06065784721089e-09
8.81223089070469e-10
-4.52634006412618e-10
-1.02506263362553e-09
-9.77041292415228e-10
-1.55181255817622e-09
-1.57381010702286e-09
-1.08141971215165e-09
-5.70535279016242e-10
-1.22573070639776e-09
-1.53030535876917e-09
-3.12426893018707e-10
-1.2690070388697e-10
-6.44944221997213e-10
4.07515415504204e-10
2.81445381911747e-09
3.86284995503967e-09
2.66076779740689e-09
1.72141521278391e-09
2.2653985037883e-09
3.42252911714473e-09
4.5441188994508e-09
3.28177306027652e-09
-1.39245478278733e-10
-1.33518886155691e-05
3.88304964446591e-06
2.87232727909892e-05
5.17569400109037e-06
8.46132305483305e-06
6.04400314501238e-06
-1.31014604960316e-06
1.65274128100271e-06
-1.81172761621777e-05
-1.87215294928777e-05
-1.31598292682355e-05
-9.25441508430256e-06
-7.55690654019531e-06
-3.79497722331543e-06
-2.71522490626747e-06
-8.03617603651444e-07
7.19915146846187e-07
8.24847906428697e-07
2.72932843404021e-06
1.81277573746095e-06
3.64575145519575e-06
2.56161637359907e-06
3.91700553699263e-06
3.22142328702875e-06
3.90934796020792e-06
3.76328015464364e-06
3.80034644326714e-06
4.05279657734692e-06
3.58850306143101e-06
3.94663489212268e-06
3.17908814832858e-06
3.36504977342427e-06
2.47699494723587e-06
2.33956202076049e-06
1.47451515650416e-06
1.0193259430453e-06
2.90167050575094e-07
-3.41635772163051e-07
-8.59915159580477e-07
-1.4741104056046e-06
-1.73780603879722e-06
-2.16526579529346e-06
-2.18545815395091e-06
-2.34453798232256e-06
-2.16865685602415e-06
-2.06325960870601e-06
-1.77529713668393e-06
-1.50421292417692e-06
-1.21265675445227e-06
-9.09326915292745e-07
-7.04941105605469e-07
-4.84416237949088e-07
-4.15772325522078e-07
-3.40039173843634e-07
-4.03194855404545e-07
-4.65098625789657e-07
-6.04228119032472e-07
-7.25347972346715e-07
-8.46827522900403e-07
-9.36221127009588e-07
-9.62597973748782e-07
-9.40074365023208e-07
-8.20896095848874e-07
-6.53440552437864e-07
-4.030755040066e-07
-1.27388527566058e-07
1.87297179226862e-07
4.92071200191493e-07
7.78993465819634e-07
1.01660640147882e-06
1.19074139820214e-06
1.29093844525305e-06
1.30013987829179e-06
1.22939065443265e-06
1.07579958910566e-06
8.72026529015005e-07
6.2293140015298e-07
3.55333734154524e-07
9.20730043474582e-08
-1.33534978128029e-07
-3.10407278995335e-07
-4.23196964045713e-07
-4.61684070985835e-07
-4.34794263744187e-07
-3.42045542672176e-07
-1.98289243743572e-07
-1.85049507138459e-08
1.71460236481706e-07
3.49251942326711e-07
4.97465320747722e-07
6.01057117486537e-07
6.46979955578142e-07
6.28286777330896e-07
5.4300273461635e-07
3.99543282603811e-07
2.15581863422757e-07
3.89229754621135e-09
-2.21602233380483e-07
-4.36412939782159e-07
-6.14213717329266e-07
-7.39106683357838e-07
-8.02239428054518e-07
-8.02667310718084e-07
-7.38277475252206e-07
-6.12543410882368e-07
-4.3943957075365e-07
-2.30661618119408e-07
-8.80628272998676e-09
1.99874049815402e-07
3.80346754320167e-07
5.15646183250249e-07
5.92155686361793e-07
6.02499924147338e-07
5.447650131055e-07
4.30208069204868e-07
2.7805617555389e-07
1.02352345369653e-07
-8.44568987212122e-08
-2.59138558619307e-07
-4.0397601121959e-07
-5.08198484633879e-07
-5.58347363244855e-07
-5.49704499751171e-07
-4.84141356866818e-07
-3.71239136547328e-07
-2.27628362259167e-07
-6.76995494471974e-08
1.03208876991647e-07
2.75013769257442e-07
4.22445113453063e-07
5.28965817767605e-07
5.83754043272076e-07
5.8342248245309e-07
5.30267360399835e-07
4.27763672193383e-07
2.87625608504936e-07
1.22186409444405e-07
-5.21898968774822e-08
-2.19585368190562e-07
-3.65654867474676e-07
-4.74763377806574e-07
-5.34562032427681e-07
-5.41706308949367e-07
-4.93633298605566e-07
-3.94501400885572e-07
-2.59253235490203e-07
-1.00233053988231e-07
6.81794068656809e-08
2.3181087731821e-07
3.74174229544221e-07
4.72711378898701e-07
5.16274692140673e-07
5.09255236356138e-07
4.57034322699381e-07
3.60381673906794e-07
2.28700226967097e-07
8.08915409545691e-08
-7.65587229551137e-08
-2.28381491707601e-07
-3.5421722836968e-07
-4.45664074903665e-07
-4.96244042336492e-07
-5.00269126842796e-07
-4.52770331120627e-07
-3.65903788184469e-07
-2.5060780392242e-07
-1.10862134325981e-07
3.79605449817759e-08
1.80855421467148e-07
3.0985161521166e-07
4.07488612077374e-07
4.6711148887043e-07
4.89597356353245e-07
4.6327321571654e-07
3.81104472210027e-07
2.5294248906515e-07
1.00851784211315e-07
-5.8847939119636e-08
-2.05560998035899e-07
-3.24469419978557e-07
-4.02714791978663e-07
-4.39860507521361e-07
-4.31543460785151e-07
-3.76727007190978e-07
-2.95590360972952e-07
-1.9557146846991e-07
-8.51496947403217e-08
4.03927531502012e-08
1.6587037276595e-07
2.73931245044356e-07
3.62541951119727e-07
4.12675420196396e-07
4.168467242926e-07
3.76189284241176e-07
2.98149547643573e-07
1.90668998040595e-07
6.35221891730431e-08
-6.8170945190298e-08
-1.89669132651607e-07
-2.87271742735624e-07
-3.51491178225028e-07
-3.83051708346282e-07
-3.83909462212994e-07
-3.45163888040654e-07
-2.71669918293191e-07
-1.72206830282855e-07
-5.68180482608676e-08
5.81850751676791e-08
1.70052282745837e-07
2.65663266526329e-07
3.32686073488852e-07
3.688366489598e-07
3.68279024134833e-07
3.33711014542667e-07
2.68077331789056e-07
1.76144626689388e-07
7.10010411424499e-08
-3.94295170178507e-08
-1.51702261882067e-07
-2.50442758394771e-07
-3.21253785394772e-07
-3.58796226884489e-07
-3.60669461913432e-07
-3.28381414256398e-07
-2.64636738079787e-07
-1.76477174129719e-07
-7.11660120782141e-08
4.2769960078955e-08
1.47168835286213e-07
2.3186645588033e-07
2.9779451394512e-07
3.36529898183003e-07
3.41580183381117e-07
3.11474402796541e-07
2.50486091870349e-07
1.67895480311843e-07
7.07961870096711e-08
-3.60268107564726e-08
-1.40980723385243e-07
-2.26076447041026e-07
-2.84661977721422e-07
-3.11600225143705e-07
-3.06855674056455e-07
-2.81061256217733e-07
-2.34155544375101e-07
-1.54943654294826e-07
-5.91744829102348e-08
3.62658022673903e-08
1.28281451783617e-07
2.08311228820758e-07
2.68818940147513e-07
2.97712553120137e-07
2.97148248181979e-07
2.65475321579368e-07
2.09373261729898e-07
1.42078636578513e-07
6.02165453024292e-08
-3.29189034996395e-08
-1.23696535622924e-07
-1.9887505175204e-07
-2.57313260108673e-07
-2.90423083110155e-07
-2.90270338081531e-07
-2.61565434185226e-07
-2.0851729702562e-07
-1.37657582644286e-07
-5.65040584936454e-08
3.09070883718636e-08
1.18431591603429e-07
1.92687418108487e-07
2.43547024730639e-07
2.69826746364674e-07
2.70341935361473e-07
2.43642221468113e-07
1.94105736456416e-07
1.28161789486771e-07
5.17478689938521e-08
-3.08549425053183e-08
-1.10430380589662e-07
-1.7406878325702e-07
-2.19972851400061e-07
-2.42198815997127e-07
-2.42077466668774e-07
-2.26200314229504e-07
-1.83047060909817e-07
-1.08333138781519e-07
-2.446207220866e-08
3.80772652792212e-08
1.01521651880918e-07
1.74531547772958e-07
2.1642897421554e-07
2.3335492209479e-07
2.37547011022279e-07
2.23246877153695e-07
1.89136614900393e-07
1.24671231782384e-07
4.63070244138528e-08
-3.16254048214775e-08
-1.09984522418386e-07
-1.75030858349379e-07
-2.25373135262035e-07
-2.55484930078167e-07
-2.56258362482344e-07
-2.34398235526741e-07
-1.95770430984645e-07
-1.37351026341566e-07
-6.36431686479687e-08
1.59582243183951e-08
9.33703951286956e-08
1.59866290206437e-07
2.08991386525968e-07
2.31654722949948e-07
2.27973932639415e-07
2.01828934746248e-07
1.5630990758743e-07
1.01284013995959e-07
4.22519410383369e-08
-2.10291474317684e-08
-7.99890704598686e-08
-1.31194036799221e-07
-1.72358947863842e-07
-1.95750609174245e-07
-1.9811028334122e-07
-1.76201584217442e-07
-1.29583718663824e-07
-7.74354153068578e-08
-3.21970974901413e-08
2.47207398534347e-08
8.71426696460536e-08
1.39087096725823e-07
1.80381783636798e-07
2.01040756883472e-07
1.93771184789904e-07
1.72078393032567e-07
1.46813968170858e-07
1.10683147314277e-07
4.79741261273701e-08
-3.05186308671442e-08
-9.15575380059772e-08
-1.40620380255396e-07
-1.78838309357692e-07
-1.92831185866608e-07
-1.80714293569673e-07
-1.56112456356007e-07
-1.23807913531554e-07
-7.66097451925522e-08
-3.07834153228349e-08
1.79668636330057e-08
6.22279901630137e-08
9.24987709679818e-08
1.32815812724805e-07
1.77145501529999e-07
1.8789453815216e-07
1.55452276369057e-07
1.18040805883512e-07
8.60749917424094e-08
3.4313797447592e-08
-2.72113432204208e-08
-8.72262878283494e-08
-1.28850021001432e-07
-1.47547912592978e-07
-1.68182061301913e-07
-1.77339717602649e-07
-1.78570246581803e-07
-1.59448132693512e-07
-1.08387599865626e-07
-5.94858097226159e-08
-3.0434673436196e-09
6.87443951868876e-08
1.51458077567422e-07
2.26819286165501e-07
2.66111260015875e-07
2.58596707262215e-07
2.08871459249199e-07
1.46382533925399e-07
7.31923202851516e-08
-4.94741213100737e-09
-7.47248502252866e-08
-1.27836935269663e-07
-1.51374237807656e-07
-1.61946986252078e-07
-1.60360653182225e-07
-1.46665745218684e-07
-1.30646940528867e-07
-1.10408369924609e-07
-8.27494207737858e-08
-4.88721820636902e-08
-1.57986579534021e-08
2.64240320839008e-08
8.06654259451852e-08
1.15969001264881e-07
1.25312877408122e-07
1.3000927466731e-07
1.18420341600248e-07
9.55040169148618e-08
6.65779067706673e-08
2.91301875743438e-08
-6.06927475808481e-09
-3.83667225965531e-08
-6.53133551537545e-08
-8.59937170422778e-08
-9.98313938302735e-08
-1.09623284221464e-07
-9.66427586371716e-08
-7.29020761784028e-08
-4.89298194113124e-08
-1.32060315670766e-08
3.00138465248033e-08
7.76553045396695e-08
1.06504490314383e-07
1.25340554371587e-07
1.37685148469959e-07
1.33259118877223e-07
1.16221915241787e-07
8.49589421107069e-08
4.53792407378677e-08
2.81188745399603e-09
-3.56883307534969e-08
-7.72769859417361e-08
-1.20539813439478e-07
-1.51412810968634e-07
-1.60878699646481e-07
-1.42475821028073e-07
-1.08700021504315e-07
-6.71893084146267e-08
-1.19978603679308e-08
3.7850594088045e-08
5.3326339820282e-08
5.65689620882749e-08
7.19066251704067e-08
7.62074689951413e-08
7.39455550876227e-08
7.77584274464523e-08
7.1434053168075e-08
4.26182037308817e-08
-4.97298131339434e-09
-5.34797104549184e-08
-7.80835414518368e-08
-7.2061524827606e-08
-6.73846668239081e-08
-5.87521177030636e-08
-3.24310054458118e-08
2.48979891146017e-08
9.18004773749358e-08
9.55470274967545e-08
6.04488831814382e-08
1.73761098378165e-08
-1.20816638790257e-08
-3.56536407089686e-09
2.16234936376074e-08
4.48152395162389e-08
4.66233261602021e-08
4.11235960108239e-08
3.45354344739099e-08
2.08645224358707e-08
-4.71575060924567e-09
-4.49106482962236e-08
-7.96949984722926e-08
-1.13765442984826e-07
-1.37213605648883e-07
-1.31411150523533e-07
-1.11293913220133e-07
-8.45391076876798e-08
-5.51435413186612e-08
-2.59767290003038e-08
1.36751252999131e-09
2.1643265188257e-08
3.36189958783459e-08
4.45964612625089e-08
6.78644380821468e-08
9.22811039901314e-08
1.09860855572213e-07
1.25701398913007e-07
1.33815753934431e-07
1.31105123080499e-07
1.12102351214062e-07
6.62208108771544e-08
1.05948708940251e-08
-3.98352200404855e-08
-8.68773589827293e-08
-1.11552615122899e-07
-1.13302186974877e-07
-1.03821048233632e-07
-8.82434718199416e-08
-7.83454858889872e-08
-6.70477334236749e-08
-3.45163575074551e-08
2.19285737291376e-08
6.62782802064245e-08
6.17507300294426e-08
5.56155861878019e-08
8.07230571758291e-08
9.5272567712534e-08
8.74428138895837e-08
7.22900552608207e-08
4.87136710442205e-08
2.33360153124301e-08
-2.97335165476882e-09
-5.10302883012063e-08
-8.46101512444564e-08
-1.01108607289051e-07
-1.2653936757646e-07
-1.36875582209063e-07
-1.24647433814126e-07
-1.00341692383647e-07
-6.75989661994684e-08
-1.15332940665834e-08
3.91527795105752e-08
8.28222684977373e-08
1.26387384551776e-07
1.43942469506662e-07
1.39980870322076e-07
1.05506161970191e-07
5.50945930646999e-08
1.72643549908752e-08
-1.722317377544e-09
-1.28496421190343e-08
-2.57523789362692e-08
-3.94143153118513e-08
-5.29575032931694e-08
-5.28147460237581e-08
-5.64335495731043e-08
-9.09084591316463e-08
-1.18252452870719e-07
-1.00740670129964e-07
-6.8892233841751e-08
-3.96802366062459e-08
1.13919254761142e-08
7.45512855076823e-08
1.21046381356983e-07
1.35979654299109e-07
1.11585622984454e-07
8.7892402713357e-08
9.44872563091428e-08
9.09897775725289e-08
5.73750047545871e-08
1.95722970809953e-08
-5.98585413527604e-09
-3.17625741047906e-08
-5.82857332852995e-08
-8.25036126723105e-08
-1.01507787397451e-07
-1.08452142621495e-07
-1.09649182897251e-07
-1.02650523398936e-07
-8.44137114081924e-08
-5.4432989235192e-08
-2.65733892075993e-08
-3.10299112700281e-09
2.22497853675015e-08
4.37795096633679e-08
6.03188484672865e-08
7.39396744423107e-08
8.04576850674548e-08
7.48369581058167e-08
6.79789867296991e-08
6.00335027240355e-08
4.14526685967793e-08
1.56621368016222e-08
-2.59770991805225e-09
-1.65321916752141e-08
-3.09529539630458e-08
-3.69355925524916e-08
-3.87217370252519e-08
-3.79911681926705e-08
-3.23846125981134e-08
-2.15835790669666e-08
-7.5014262334846e-09
4.4914572700538e-09
1.2228646090837e-08
2.12828583496203e-08
3.37574755208786e-08
4.08827823794787e-08
4.01620113386775e-08
3.27536714220687e-08
2.34164121535833e-08
1.15230892074401e-08
-5.07240334227449e-09
-2.0932157246674e-08
-3.66552588065137e-08
-4.66314979343907e-08
-5.32924054047313e-08
-6.06014347289323e-08
-6.21611529646787e-08
-5.75894904132351e-08
-4.16347052392233e-08
-1.62533667532627e-08
3.70430280176444e-10
1.2806155346793e-08
3.22566928806533e-08
4.44599387198948e-08
5.12576008914129e-08
5.57952375128061e-08
5.57956821481971e-08
5.50900783090285e-08
4.66411067229519e-08
3.1825893573263e-08
1.21968536427039e-08
-1.73852285609389e-08
-4.64112321943625e-08
-5.84090259528597e-08
-5.34640360806766e-08
-4.31624641881592e-08
-3.7056934834543e-08
-2.30103110247556e-08
-1.23481216862558e-09
1.07798949876592e-08
1.78242939406678e-08
2.62326204908864e-08
3.55448788483939e-08
4.12740093461088e-08
4.41351317263314e-08
4.69999557937541e-08
4.01526809592301e-08
2.28083433600833e-08
9.81897302129981e-09
7.37848469083479e-10
-8.53020007848493e-09
-1.96224225017935e-08
-3.99122239335806e-08
-6.07709866979527e-08
-7.1628091977111e-08
-6.65783808531041e-08
-5.02470159740715e-08
-3.55747722795819e-08
-2.82987121034682e-08
-3.06145638838924e-08
-1.91551472569342e-08
1.59293534860159e-08
3.96621842280464e-08
5.28458874681203e-08
6.08879232770725e-08
6.37636865784569e-08
7.31519810069111e-08
6.9138203937667e-08
4.64043966938506e-08
1.31270004727144e-08
-1.47755716879865e-08
-3.21103751541655e-08
-4.18901623697882e-08
-4.43190583776686e-08
-4.16369305313834e-08
-2.84366698973047e-08
-1.67346203701239e-08
8.88234171050138e-09
2.0279383292604e-08
-1.63292092199097e-08
-2.77910708933365e-08
-1.19121804649248e-08
-1.57670584435103e-09
1.12857862067136e-08
1.44775726164004e-08
2.09921388456998e-08
2.45872234548778e-08
2.22000271518901e-08
2.52374058429048e-08
1.93518644986536e-08
2.08237114069816e-09
-1.5580026164637e-08
-2.77642018994898e-08
-3.22129624150466e-08
-3.71381700549538e-08
-4.40876474307758e-08
-4.94916764445585e-08
-4.9470049193571e-08
-3.611703803924e-08
-2.34456829079118e-08
1.81850316213917e-09
3.26683703412364e-08
5.52888021324998e-08
7.31597839830353e-08
7.26984548706939e-08
6.78127448670827e-08
5.67996577554314e-08
4.83022077582537e-08
3.51009629865429e-08
1.20606722827072e-08
-2.19531128348921e-10
-1.53647773430821e-08
-2.64462051839563e-08
-3.59894716273119e-08
-5.04204035822759e-08
-5.46024743811442e-08
-5.24542704744557e-08
-5.03299031812229e-08
-4.64665267817327e-08
-3.44341349766791e-08
-1.31163869022931e-08
1.81911990476904e-08
4.34099728738991e-08
4.94927948422134e-08
6.67739467460899e-08
7.40626782930406e-08
5.22549623681777e-08
2.6463813148432e-08
8.38849166933736e-09
6.77522649680293e-09
-1.45016820114012e-08
-4.13254804454451e-08
-3.98908965434035e-08
-2.0214212630149e-08
-1.84742101137559e-08
-3.65162014580899e-08
-3.06585691861035e-08
-3.33178270077687e-08
-3.69190557423853e-08
-3.11274942945496e-08
-2.69250291690402e-08
-1.62978882079439e-08
-6.15218578349438e-09
5.96100520313155e-10
-6.4236872484317e-09
-2.10436549430228e-09
7.71218334903219e-09
1.00976131245785e-08
7.6025814211563e-09
6.15283784958766e-09
-1.16871126745238e-08
-4.72570154573916e-08
-4.10134465136007e-08
-2.2981951216554e-11
5.09357828316316e-08
6.84901176435205e-08
4.05419340099514e-08
3.13882579862212e-08
4.51498115937864e-08
6.7272541569839e-08
8.33720051724244e-08
7.87748741345556e-08
4.42394439541362e-08
1.46376287393873e-08
2.22821697200882e-08
3.41854925432813e-08
6.03669460184789e-08
5.27743492559275e-08
-2.06820846078818e-09
-4.70737982772539e-08
-6.50664519453288e-08
-6.44703057937821e-08
-6.82582369788401e-08
-6.75118334270813e-08
-7.48011082978794e-08
-7.43825008988306e-08
-6.05500216990912e-08
-4.36980815627986e-08
-3.04732715322979e-08
-3.47105906646615e-08
-3.81489422409312e-08
-3.22808607158322e-08
-2.02589549765242e-08
-7.97535887975377e-09
2.76041530326022e-09
5.67341968427211e-09
1.03497026507532e-08
1.99905664221513e-08
1.23744180790601e-08
-1.9237411052022e-08
-5.5850272960602e-08
-7.89082005457626e-08
-8.1684353914151e-08
-4.96873916830295e-08
8.33256250814592e-09
6.36135452903725e-08
9.3371818228517e-08
1.11543211686105e-07
1.30963432376892e-07
1.46804241163295e-07
1.77473758728125e-07
1.90816242921402e-07
1.91030596277257e-07
1.77053722424812e-07
1.18594021986333e-07
5.73750563115248e-08
-4.37653226532059e-09
-6.06454061607325e-08
-9.92375810473376e-08
-1.27032764197876e-07
-1.33951310515031e-07
-1.27968252217244e-07
-1.35347178658742e-07
-1.44554723559623e-07
-1.42952337746535e-07
-1.36778151723861e-07
-1.23606792451161e-07
-1.10019615807768e-07
-9.05686234311582e-08
-7.65855853254873e-08
-4.84323605872404e-08
-1.95348653574597e-08
-2.0899310968785e-09
2.10734522689041e-08
3.85706580531329e-08
5.85806895420793e-08
7.26286182858983e-08
8.20744215403549e-08
8.03983462177933e-08
8.09702310911174e-08
7.72376953896922e-08
3.70379388491611e-08
-9.14473468575714e-09
-2.56870065762632e-08
-2.10475156803693e-08
-9.70225768154761e-09
4.41171767325647e-10
2.27370338755668e-08
6.98105496190837e-08
1.33143024383478e-07
1.84823304724421e-07
1.66042666725352e-07
9.75536057319446e-08
2.2917713933658e-08
-1.37220373563286e-08
-1.94944183585974e-08
-2.75074810185086e-08
-2.86587412491608e-08
-4.77406102728296e-08
-7.84022552441343e-08
-9.82473846687886e-08
-9.84293654635864e-08
-9.21233180877529e-08
-7.25773007385368e-08
-3.77479112718274e-08
-1.19396086663627e-08
1.33327025746282e-08
5.21572217504055e-08
4.91844440715921e-08
-1.89248795172885e-08
-6.82222254879066e-08
-7.39343062928414e-08
-5.78445017902624e-08
-1.93195368684649e-08
9.56672488083494e-09
5.49928329104966e-09
1.41600903933393e-09
1.62843156644252e-08
3.10905497756238e-08
3.39172955480206e-08
3.49187476189219e-08
2.7694111623469e-08
4.23051121527896e-09
-6.29738768451538e-09
-4.64595629740648e-09
-8.98531750643193e-09
-1.12092472941298e-08
-1.24327655108026e-08
-1.32208954730335e-08
-2.14875056872332e-08
-3.00401041643288e-08
-3.02458465283347e-08
-2.36032020675065e-08
-9.60314023326349e-09
-6.74383092097134e-09
-3.73767111669756e-09
2.8492376489547e-09
1.93484199611869e-08
5.34900767464719e-08
6.36550326689772e-08
5.21458061070235e-08
5.54464082740499e-08
3.82273632284171e-08
-3.45256470567207e-08
-5.71481112702816e-08
-2.12956188528882e-08
-1.37624749055854e-08
2.98955402199296e-08
1.00114937403282e-07
1.86371478626856e-07
3.00203906600779e-07
2.95335429249469e-07
1.5064613004884e-07
2.05107817134295e-09
-9.78366085608373e-08
-1.48376544006174e-07
-1.70039964437567e-07
-1.83217070755162e-07
-1.71807668277722e-07
-1.58733307453806e-07
-1.50842735205899e-07
-1.40763626492988e-07
-1.2442809836419e-07
-8.88127062610813e-08
-6.27222632658723e-08
-2.63322371637753e-08
4.1481256040305e-08
7.25915046926422e-08
5.22204177137625e-08
3.78451073778985e-08
4.59784659745902e-08
4.03185746065981e-08
1.11639356572323e-08
-1.06609520955047e-08
-3.64603923238949e-08
-4.03711974263605e-08
5.44018881782224e-09
5.75170542139207e-08
9.03953505730942e-08
1.08884037167532e-07
1.33874385054716e-07
1.11966018077669e-07
3.44331797270561e-08
-6.83284597878713e-09
-2.40114081104773e-08
-3.37704542664431e-08
-3.66609618462232e-08
-6.25373120007968e-08
-1.06021283648049e-07
-1.3750332563924e-07
-1.24286184386444e-07
-8.56984253393391e-08
-4.37660865293131e-08
-1.01914069697831e-08
5.17292077775557e-08
1.35194216265363e-07
1.32418170838043e-07
9.89312486335032e-08
1.24736892975511e-07
1.47101155830328e-07
1.29797933475484e-07
8.77931152757409e-08
4.47098310188291e-08
5.56579269471842e-09
-3.21768731166283e-08
-8.04313282205507e-08
-1.13327059221472e-07
-1.01866729161298e-07
-1.19210096841881e-07
-1.40243079322893e-07
-1.35361534260874e-07
-1.00669234854681e-07
-3.39826040613712e-08
1.13740700657333e-08
5.47317873667842e-08
8.28845188560638e-08
9.06070426283917e-08
7.21278208751354e-08
4.07065281482447e-08
3.9414816171756e-08
4.00038009183404e-08
5.02663953350519e-08
5.5309068017197e-08
3.92216762011958e-08
2.43588341722397e-08
1.68843669454563e-09
-4.0677598141941e-08
-8.76642633218426e-08
-1.00573705539223e-07
-9.26920851896701e-08
-7.59200942797425e-08
-4.04224975293567e-08
-1.38731440543485e-08
-1.28857331244606e-08
-2.70895093656769e-08
-6.28829243463494e-08
-8.55165755716242e-08
-6.97318798499031e-08
-4.38276233014399e-08
1.33831531472928e-08
6.4558097384008e-08
9.73711117285827e-08
1.55979317245361e-07
1.8117455835631e-07
9.03506539438505e-08
-3.53217226370821e-08
-4.76434316303077e-08
8.61533659363918e-09
4.61744508165639e-08
3.66118201818392e-08
3.47717571084716e-08
9.41495082983306e-08
1.14056362881875e-07
6.21786284603018e-08
5.90407310895305e-08
1.05564222193424e-07
9.960147597435e-08
6.73715378157332e-08
4.49058208948338e-08
1.35045799172239e-08
-7.21436734868871e-08
-1.93034038846146e-07
-2.34822795822615e-07
-1.98187506271956e-07
-1.6444391542933e-07
-1.36115080407691e-07
-9.69481261386658e-08
-4.79926194880201e-08
-2.8141511264524e-08
-6.52611364408418e-08
-8.22021677430962e-08
-6.71808864132801e-08
-4.77842195997331e-08
-2.66948060518458e-08
-1.37857420656488e-08
6.44687695023042e-09
3.03021513272328e-08
4.69201318024937e-08
4.83082888483104e-08
6.03937236785137e-08
7.83376644130634e-08
8.20836141459806e-08
9.4145768528369e-08
9.50499520868819e-08
8.19502004334432e-08
5.35110956468811e-08
1.23937172583748e-08
-2.9632710013511e-09
-7.77134093096307e-09
-2.3611309160766e-08
-3.68890165952785e-08
-4.16489262595369e-08
-5.61531566619467e-08
-7.71596281470564e-08
-7.25876762072011e-08
-3.92125919323406e-09
8.65017773665187e-08
1.47814284343366e-07
2.29978426896014e-07
2.88941603662316e-07
2.78559878478024e-07
2.10788122924656e-07
8.0588570684196e-08
-4.22515685737127e-08
-1.02822918956885e-07
-1.05553582819935e-07
-9.38550964269116e-08
-1.15552525396082e-07
-1.34885899927774e-07
-1.46277396289659e-07
-1.45350603091078e-07
-1.14162720574784e-07
-9.12190281294748e-08
-8.11301610408361e-08
-1.09629678916739e-07
-1.35351991012839e-07
-1.34019654548515e-07
-1.19659614294336e-07
-8.87213313909121e-08
-4.79959323707165e-08
5.38241678838225e-08
1.35722209402443e-07
2.02198353172461e-07
2.550562085029e-07
1.90684923305717e-07
1.17758441693074e-07
4.57074293725035e-08
-4.02941745794692e-08
-5.79417620745856e-08
-3.03400974919469e-08
-1.974503611751e-09
-1.06746999762864e-08
-1.4509116875434e-08
2.96528985623526e-08
4.60603694463687e-08
1.26244912358319e-08
-1.15535901684369e-08
-3.5002196318065e-08
-4.61619611983762e-08
-3.5218993708384e-08
-2.07840591669613e-08
-3.32653836730086e-09
-3.53155244709824e-09
-9.4636591293743e-09
-2.07331796379398e-08
-3.9319988249039e-08
-4.77756866434653e-08
-4.06252913081208e-08
-2.66272265105874e-08
-2.46924403627667e-08
-3.34240147124484e-08
-2.49587744480683e-08
-1.45414015273074e-08
-1.56310403506418e-08
6.05380798283549e-09
2.7639009674748e-08
4.48611148320548e-08
6.75593529352473e-08
7.66646707621636e-08
6.70395516297882e-08
6.04826705618866e-08
2.46686030087053e-08
-4.31264229230186e-08
-3.60057702882929e-08
1.63599976330544e-08
8.84163797146164e-08
1.18829989057292e-07
7.92993795802379e-08
4.56500641167454e-08
1.54325299469177e-08
3.29837130432851e-09
-5.01320871956297e-08
-1.01535000423976e-07
-1.17686070806489e-07
-1.21606464587212e-07
-6.11772822870687e-08
1.32564026106633e-08
5.28010462781884e-08
5.26446469111013e-08
3.27386268680074e-08
2.36693544401301e-08
5.9413007153827e-08
5.72383153436263e-08
-3.48920463273063e-08
-6.61403530264342e-08
-4.55771522701255e-08
-3.23916322241868e-08
-2.11401445246425e-08
-1.99054915349304e-08
-2.64063162434181e-08
-8.37685807908383e-08
-1.13365203265773e-07
-9.36975819505076e-08
-5.23899646340947e-08
-6.63855917214767e-09
1.75417364340818e-08
4.34444342507018e-08
2.89704947159959e-08
1.8751857526441e-08
3.49601982793088e-08
3.93132275115099e-08
2.15186281080138e-08
3.19851403398247e-09
2.12222513681616e-08
4.8057823298001e-08
7.25254833102599e-08
9.21241662872828e-08
2.36041351225036e-08
-1.35117449212251e-07
-2.09825499864541e-07
-1.81491975714218e-07
-1.2326637376206e-07
3.62350193363244e-08
2.81489707642057e-07
4.45523011418883e-07
5.00780409431955e-07
4.66724889747877e-07
2.87801290056087e-07
3.62581495033689e-08
-1.3847365266181e-07
-2.03365743586344e-07
-2.1890828033131e-07
-1.90163894939066e-07
-1.35120932582963e-07
-9.0259508668414e-08
-1.09518844260503e-07
-1.69063561722914e-07
-1.98622453404874e-07
-2.20578518971805e-07
-2.19174381225027e-07
-1.88316904673679e-07
-1.55157652016439e-07
-9.89545608045794e-08
-2.92879500172528e-08
2.24520160810331e-08
8.75300399064932e-08
1.2197224508029e-07
1.26666572919669e-07
1.53916792614935e-07
1.07561209939507e-07
-8.06807566648205e-09
-6.08539628661016e-08
-6.34037869006917e-08
-3.03634045780015e-08
4.00234745806513e-08
9.04033478935048e-08
9.85910102732297e-08
7.17621756753925e-08
5.1681599195788e-08
5.00231930317907e-08
4.61343004384422e-08
4.16068760205947e-08
5.33101455158217e-08
3.1257948331729e-08
-8.09187952622944e-09
-5.07573044790788e-08
-7.44874969761212e-08
-4.39117534723639e-08
-1.19026352117343e-08
1.37390833195304e-08
3.04723906182142e-08
7.30173440657596e-08
1.21925699053187e-07
1.1020247905916e-07
4.04210143234864e-08
1.33821089764514e-08
2.73363015080322e-09
-3.98539923414515e-08
-4.84838313575167e-08
-3.37237937439389e-08
-1.08449554820969e-08
-8.96833886140007e-09
-1.03879278567612e-08
-3.02268018685015e-08
-5.39323030921087e-08
-5.46674061365269e-08
-6.64996239073708e-08
-7.27957716197005e-08
-7.2080526292101e-08
-5.92409783077451e-08
-5.35007583079471e-08
-4.96648357627247e-08
-1.77335980684282e-08
2.19091466677903e-08
3.06843169140301e-08
2.12298954139016e-08
2.54497036666795e-08
1.53507770224618e-08
-2.1923304006833e-09
3.60588079740973e-09
2.7651896882182e-08
5.56019250160636e-08
7.10632523290648e-08
7.57169318353296e-08
7.62598444833344e-08
6.16373330410362e-08
4.24686245958319e-08
3.27786356345395e-08
9.0753600701585e-09
2.96679655701676e-09
1.59482883118377e-08
1.73835338334744e-09
-1.76166094488202e-08
-6.1142481805505e-08
-1.00823476929671e-07
-8.34445603112704e-08
-5.92478472465904e-08
-3.82840776226836e-08
-9.88345053077922e-09
1.78238714956788e-08
5.18940652034663e-08
6.38010566393737e-08
2.41923846420129e-08
-1.44138286081339e-08
-2.48316087255793e-08
-3.77320523715278e-08
-4.40108778214783e-08
-4.00053463297664e-08
-2.76071576795781e-08
-3.39159958078855e-08
-2.50333937742691e-08
4.94524946880465e-09
5.77604499352935e-10
4.16064569458329e-09
2.0376908977278e-08
3.0259469581241e-08
2.95621973394212e-08
6.26499608981181e-08
8.49370432548176e-08
5.77271371002033e-08
5.07005427211038e-08
6.20686487196066e-08
3.18819364106191e-08
-6.36837843196238e-08
-8.06009862138708e-08
-8.04169582493591e-08
-1.2216833764117e-07
-1.01575945406991e-07
-7.54927050572523e-08
-4.98371374841027e-08
3.68906309301067e-09
6.15496998968844e-08
8.95091492203249e-08
1.46719032666317e-07
2.01806693129661e-07
1.54131177216846e-07
1.2173884657733e-07
1.25031841348491e-07
4.41878173837865e-08
-5.41150849253201e-08
-1.03456816666937e-07
-1.17920439541449e-07
-8.60556124747082e-08
-6.53621635442162e-08
-6.05548496589693e-08
-4.25131754689166e-08
-2.80968326656836e-08
-2.46897001846575e-08
-4.1775357804689e-08
-6.27290182884491e-08
-7.20958120370954e-08
-8.0720675218359e-08
-7.56380096243013e-08
-5.29873125150529e-08
-4.31496209138895e-08
-4.00130657755454e-08
-6.4219429821233e-09
3.21390374391238e-08
1.50424142401304e-08
-3.70906810900513e-08
-7.15500471490956e-08
-7.01652124961745e-08
-3.63148028156782e-08
8.25111631165615e-09
5.17448010689316e-08
1.02350407431056e-07
1.18280322853156e-07
1.12185801952217e-07
1.28605030654685e-07
1.09568336778109e-07
7.80291711558149e-08
6.19571245205988e-08
2.05167594711087e-08
-2.71674932584768e-08
-2.00697862706883e-08
5.28134842681263e-08
1.33612444963633e-07
1.58159553980045e-07
1.32402843925897e-07
9.6057108303611e-08
3.0625165516784e-08
-1.2939293039217e-08
-3.24016314276085e-08
-8.66600959225035e-08
-1.48771566299351e-07
-1.85245875737951e-07
-1.69275186025093e-07
-1.22090966891062e-07
-1.07793590898607e-07
-1.17600783496508e-07
-1.13291984163151e-07
-9.35571476290093e-08
-4.26799207860481e-08
-1.9067667068412e-08
-1.14678710067403e-08
4.93310620242763e-08
1.05680875757083e-07
1.40792294586342e-07
1.67941573803989e-07
1.49211989688884e-07
8.43068763917366e-08
3.31309280948055e-08
3.57386594965532e-08
6.38274521574842e-08
5.06772549953697e-08
-3.95499692809643e-09
-4.23124175510596e-08
-5.94319538179143e-08
-7.7833153573296e-08
-9.10065893190165e-08
-8.29111672505875e-08
-7.41075795402473e-08
-6.70962703114318e-08
-3.88678508407003e-08
-3.31801833903454e-08
-3.22303293966766e-08
8.46165708411009e-09
6.44595974950561e-08
9.8690660814296e-08
8.90510460243522e-08
4.75967019225116e-08
-1.96141386496036e-08
-6.77093742381e-08
-1.03657241423724e-07
-1.3406224838805e-07
-1.09063328630327e-07
-4.18710266832696e-08
2.81211594831205e-08
7.21385357139578e-08
7.8964251401611e-08
6.64782622863876e-08
6.33188739709939e-08
6.59057315808958e-08
4.05985157631321e-08
-5.95192373719222e-08
-1.34637171692794e-07
-1.14861191929683e-07
-7.77572965941208e-08
-1.63389241841942e-08
4.15145956333141e-08
8.37236336025767e-08
1.13915174098665e-07
1.7652902845462e-07
2.73969353005301e-07
2.21427276765789e-07
7.11532465977669e-08
-1.57918054835935e-08
-4.03895747511248e-08
-2.90057637977609e-08
-6.95667678143624e-09
2.93119984480118e-08
5.76246461219587e-08
5.60440553327588e-08
9.83711784122078e-10
-6.66722952350473e-08
-9.29919799485314e-08
-1.35327133158701e-07
-1.78386881283215e-07
-2.26802735262474e-07
-2.57341088799716e-07
-2.33410118342034e-07
-1.83802034618197e-07
-1.16423997874273e-07
-7.60610910294462e-08
-1.84225388365121e-08
4.7860832537798e-08
8.78115218263524e-08
1.24933962602553e-07
1.3317305035215e-07
1.4666781661051e-07
2.09325746173625e-07
2.30535823748227e-07
1.54917252125503e-07
8.11019066049669e-08
3.49196620922568e-08
2.97589291368019e-08
4.89267186559745e-08
3.59035695397864e-08
3.58582004506075e-09
-1.9359031597621e-09
1.80421545954696e-08
-8.33650140221756e-09
-8.53241727268316e-08
-1.13699403793275e-07
-7.9771997766578e-08
-1.00289168345634e-07
-9.87914960358435e-08
-5.60764467146685e-08
-1.45871664370814e-08
-9.82177606191419e-09
-6.37714387860837e-08
-2.95704047208603e-08
-8.1479093262193e-09
-2.96689600111433e-08
-8.05590769350845e-09
4.23175836128647e-08
1.28550697906867e-07
1.77913933421215e-07
1.88622640557162e-07
1.64446092267772e-07
9.02543133488808e-08
8.07396374314231e-09
-5.62459046762e-08
-1.32711561798851e-07
-1.6215976155572e-07
-1.08763051280572e-07
-1.31138375341672e-07
-1.86442352340986e-07
-1.62958775335077e-07
-9.05871119681175e-08
-2.44430955255878e-08
2.66152500188398e-08
9.69262832113176e-08
1.02865311919321e-07
5.22588959431049e-08
2.90759714252722e-08
3.7958116867319e-08
7.07995805739768e-08
1.5371438419887e-07
2.21998508607908e-07
1.65365837194891e-07
4.97004987605414e-08
-3.25721417952307e-08
-9.69950264004457e-08
-1.5610705167301e-07
-1.53394500844244e-07
-1.08291507931145e-07
-3.87621208577559e-08
2.72433091691197e-08
2.46077542390426e-08
-2.21721159654945e-08
-4.13277243236084e-08
2.93510256377438e-08
9.07013214461044e-08
4.93205231500435e-08
-6.04997565901825e-09
-1.54523262116062e-08
2.46343031506096e-08
6.21986860778765e-08
4.4206417927586e-09
-6.22626512420254e-08
2.795047026662e-08
1.50479505760767e-07
5.53455378762647e-08
-1.56187801823027e-07
-3.00689622993025e-07
-4.45751880894605e-07
-5.43016363067963e-07
-4.72447923643144e-07
-3.45770264906404e-07
-1.58965901209082e-07
1.16196195372796e-07
3.97324033705088e-07
7.82327436789062e-07
1.14128806595841e-06
1.1174730218386e-06
6.54121854775427e-07
1.3519381253934e-07
-8.5613281801779e-08
-9.2138510216946e-08
-5.01343133677682e-08
-2.3143283128966e-08
-9.53464754431323e-08
-1.98859470312273e-07
-1.90426368514392e-07
-2.13034207684174e-07
-2.83605453561518e-07
-4.4920321505221e-07
-6.39553516994353e-07
-5.95814166012757e-07
-4.69397703161435e-07
-4.30097759844157e-07
-4.21052156084493e-07
-1.78473390385955e-07
7.28518580101621e-08
6.80175437006958e-08
2.96956136064449e-08
1.32375042178985e-07
3.54910089772167e-07
4.50557945003569e-07
3.92434177121805e-07
1.96573906408628e-07
1.21817867450789e-07
2.8720555200446e-07
1.57304914360899e-07
-3.85028061602033e-08
1.99347299020278e-07
4.13496673198211e-07
2.9030934957535e-07
9.79688770471698e-08
-8.9833371230462e-09
-1.40125621222589e-07
-2.5974476284189e-07
-2.64205188444255e-07
-2.01761100944235e-07
-1.24883095992118e-07
-4.51414486099766e-08
-1.69197098920625e-08
-7.4883819581025e-08
-9.9800716985578e-08
1.06942122656703e-08
1.94226655947686e-07
2.19904380631046e-07
1.45411488487335e-07
9.87232214699657e-08
1.51605139051097e-07
2.0189914158912e-07
6.65526503259227e-08
-1.11736274268831e-07
-2.22265749409863e-07
-2.80152275820931e-07
-3.42548785769054e-07
-2.69880960245144e-07
-1.56737092906453e-07
1.77374930282659e-08
2.49158119338316e-07
3.08480545270854e-07
2.55699933012449e-07
2.61397901168534e-07
2.78544050079349e-07
6.37021065762409e-09
-2.3941169123186e-07
-2.81911614748997e-07
-2.46006991681019e-07
-3.03697338793834e-07
-2.95224839359495e-07
-1.62586020718173e-08
7.54367418369638e-08
8.72682068253013e-08
7.8553214910851e-08
-6.42990380199727e-09
-1.91855458350709e-07
-4.03471267069777e-07
-5.3687691163305e-07
-6.41878790458064e-07
-4.33518579575105e-07
-7.17876308795867e-08
3.14539465796887e-07
5.72015839586174e-07
7.26430101658426e-07
7.91912782668622e-07
4.76920668834239e-07
1.88586244161936e-07
-6.02039030053142e-08
-2.38154799200501e-07
-1.56651579589334e-07
5.39900171245498e-08
4.17858320924883e-07
8.03994700256487e-07
1.2399191706884e-06
1.3226628154371e-06
9.56434285009534e-07
5.57438330255643e-07
-6.62769871980204e-08
-6.57193911194233e-07
-9.30759228755805e-07
-1.11934627186904e-06
-1.12296338764415e-06
-1.06292533777861e-06
-1.04816363122366e-06
-9.09388190494457e-07
-6.90552368876344e-07
-4.41823263066259e-07
-2.96219183212065e-07
-8.66146668134294e-08
1.67804862514988e-07
7.28748791068373e-08
-1.27070659755088e-07
-1.37258415879978e-07
-2.87452726376355e-08
2.88573605104065e-07
5.75968182554394e-07
5.29980593948512e-07
3.0169674593709e-07
2.39539711930112e-07
3.28264015035667e-07
1.65627533337036e-07
2.00266065719422e-08
1.30511188585041e-07
3.30569180248372e-07
4.1009076848488e-07
1.46170726856933e-07
-6.59769507449059e-08
-2.39145180404374e-08
-7.71609654974138e-08
-1.36411935472612e-07
-5.36045543183802e-08
9.39092191236233e-08
2.45059129823e-07
3.45291828947762e-07
3.05689568300246e-07
1.28459136879157e-07
1.48696049000886e-07
3.22894996474079e-07
7.43292333584693e-08
-4.28981010820958e-07
-5.29996648828896e-07
-5.27107029365552e-07
-5.88164989234601e-07
-4.63423940017814e-07
-1.4400003407831e-07
1.15341959596663e-07
3.1896045541156e-07
6.25435779619555e-07
4.6609426498769e-07
2.72074868322777e-07
4.11162982563791e-07
3.8029282888505e-07
1.68945043378607e-07
-1.23163284503327e-08
8.02533660410528e-08
-1.016004891567e-07
-7.43394405291754e-07
-1.1638069982803e-06
-1.2615472722608e-06
-1.09779478517469e-06
-5.32776269141271e-07
3.38054653614797e-07
8.81128695350935e-07
9.22148069095281e-07
8.70562329422977e-07
8.51956886804722e-07
7.5696996478562e-07
4.59864376953664e-07
2.74303677480054e-07
4.00685897951567e-07
5.28443360831856e-07
2.34885757148345e-07
-5.30618926866692e-07
-1.39266915431427e-06
-1.55461416654545e-06
-1.04282803348747e-06
-5.37005619560521e-07
-1.65524592222721e-07
-1.14625951725627e-07
-2.21163840895561e-07
-9.11277628041148e-08
3.92677705071893e-07
4.98209388797011e-07
1.69706268685652e-07
2.02028896423549e-08
-4.16013302977247e-07
-6.80896375835391e-07
-3.40829150830279e-07
1.30476081235063e-08
5.18782500074697e-07
7.33816243152722e-07
3.50775058394678e-07
5.36181241789744e-08
-4.35927160903068e-08
4.59041388684481e-08
5.53391277323772e-07
1.02270096204161e-06
8.26153344993498e-07
6.78774777347551e-07
4.06301887483136e-07
-4.10821896556099e-07
-1.0839011681626e-06
-1.15522234214336e-06
-6.21026632959258e-07
-1.00141569502255e-07
2.43004755420153e-07
4.3258932010479e-07
4.42925412040661e-07
3.81350831448817e-07
5.25260227920918e-07
6.82267260231922e-07
5.79108589537072e-07
-1.01881880812062e-09
-6.11068979265188e-07
-3.6620199395357e-07
-3.26759242714857e-08
-1.09897038839603e-07
-7.03149202481848e-07
-9.37622051852622e-07
-3.29429110959028e-07
-1.40568516779643e-07
-2.7367533875558e-07
-3.59432581692711e-07
-3.89472705131367e-07
-3.12819211789157e-07
-4.26583177888955e-07
-3.70462624913194e-07
6.23881458114543e-08
3.38883583759816e-07
1.01781713300278e-06
1.51949925700147e-06
1.01098471472003e-06
4.34265522411968e-07
-1.21965678465801e-07
-6.60498610558401e-07
-9.91353160848914e-07
-7.46849788680912e-07
-3.64868732764634e-07
-3.0720299550162e-07
-2.76070169659417e-07
-1.26400122966014e-07
1.79122641986502e-07
5.396238003433e-07
1.55002942425053e-06
2.30062674607974e-06
1.68348937829215e-06
5.57100043709024e-07
-5.55898282506402e-07
-1.18457923140646e-06
-1.04710856622887e-06
-6.72387419080876e-07
1.94364732620928e-08
7.85845788468712e-07
9.45114159400783e-07
6.23170214409147e-07
5.44425800344639e-08
-3.95177183251223e-07
-5.6277541102374e-07
-9.42494238135597e-07
-1.09543794083273e-06
-1.43133550970355e-06
-1.5192224456617e-06
-7.76737051203852e-07
-9.61350205710929e-07
-1.03375059573899e-06
-6.01937112667645e-07
1.15049834784634e-07
7.50279992939965e-07
9.00316720276359e-07
1.51443042719809e-06
1.31499648279993e-06
5.88604813210304e-07
-4.79508082662209e-08
-1.6279360168175e-07
8.96890803044375e-08
8.82879370430313e-08
-1.05296108886451e-07
-5.2136637404843e-07
1.39561738359131e-07
2.72977729372522e-07
-4.79997007498107e-07
-6.32145766834119e-07
-8.13872186760799e-08
1.42807780237435e-06
1.88649376992138e-06
6.73422465897415e-07
-2.3834424837409e-07
-4.14892515286737e-07
-6.37552439455861e-07
-7.97436864271532e-07
-5.60632807404359e-07
2.4532907564776e-07
9.46669316245708e-07
1.00722086218056e-06
5.27589361560314e-07
-3.28386827156576e-07
-5.11753533822205e-07
2.26569046329161e-07
7.43057779556434e-07
5.53935347310292e-08
-3.72870482654747e-07
-3.87233674871922e-08
-4.78308849717836e-07
-1.00629247212369e-06
-7.12633263532492e-07
-6.18928898112988e-07
-5.15011408235648e-07
-8.42988303821927e-08
1.30736194377565e-07
4.24873713917751e-07
6.65456700775218e-07
7.09533546536609e-07
4.85892714899811e-07
5.07469319387702e-07
5.67544018364625e-07
-5.64865063677395e-07
-1.56854868242186e-06
-8.28154873734551e-07
-4.37316654888116e-08
-2.07327819362662e-07
-2.07175507825561e-07
8.35815343541167e-08
3.47872876308826e-07
5.74948773957949e-07
6.15213105409287e-07
-1.55998383496177e-07
-1.19306383303964e-06
-1.11995951983597e-06
-1.11496659949107e-06
-1.37646739335362e-06
-2.53058897976498e-07
1.30601537866784e-06
1.54024751163364e-06
1.10324093307619e-06
9.27839007475117e-07
1.04706848624058e-07
3.28815019862098e-07
1.26342395480587e-06
4.49845364193481e-07
-3.20053468393879e-07
-4.14016470899449e-07
1.19791607691195e-08
-7.32246634441227e-08
-8.27037095136254e-07
-4.16540534729055e-07
8.35847295595868e-07
1.68377852890575e-06
1.16051578477715e-06
1.27737527385399e-06
1.7114721638092e-06
-1.28282292425691e-07
-1.83606330284915e-06
-1.50096910985752e-06
-5.98722323785779e-07
-3.62046461215239e-07
-7.24579504930851e-07
-1.48386043444971e-06
-1.56250071170838e-06
-9.94982575552742e-07
-1.19356576832638e-06
-7.12347784217292e-07
6.13706378747893e-07
5.31669583125752e-07
-5.45342986863183e-07
-1.04650406518461e-06
-7.84440082554622e-07
1.94886369325187e-07
1.14095722181498e-06
1.71363590380198e-06
1.45234049555842e-06
1.23093910582198e-07
-5.0155167917559e-07
-7.71946222721172e-07
-6.57414147544708e-07
3.57634613436821e-07
1.38486663982933e-06
1.74187070407059e-06
3.57557067277299e-07
-4.49602079636235e-07
5.10911211671399e-07
1.05222535559476e-06
1.34041983004407e-06
1.10814690872136e-06
9.59232278597718e-08
-7.85703682026032e-07
-2.38933769371726e-07
1.22052069692553e-06
8.56755379594547e-07
-5.67991225544551e-07
-1.92514141054428e-06
-2.78303517045353e-06
-1.99953744106376e-06
-5.32734430786094e-07
-3.13433991938449e-07
-1.3196160342335e-06
-1.5740101539678e-06
-8.36104219856325e-07
2.9671642426934e-08
7.3340884526418e-07
1.69511109241942e-06
2.88466792572774e-06
3.30520993631364e-06
2.06530979700191e-06
-2.84218268695079e-08
-7.77520225335422e-07
-1.05522188921198e-06
-1.03243256323309e-06
-1.33715599088012e-07
3.55642978456272e-07
1.3043276246372e-07
-1.93985035896207e-07
-1.24793949639779e-07
-2.85592166373556e-07
-3.04481440826589e-08
5.439789742516e-07
7.222118735691e-07
2.58950019525779e-07
-6.44776306260699e-07
-1.35414253686395e-06
-2.43173649315249e-06
-2.41987207462473e-06
-1.45429954644865e-06
-1.12030738297985e-07
1.87230097386176e-06
2.89055388640847e-06
2.83486863363731e-06
1.80787109337447e-06
-5.33787999671708e-07
-2.61525853826921e-06
-2.44404469024803e-06
-1.64744324516285e-06
-6.05935842291186e-07
1.22228600362899e-06
1.22008196276459e-06
2.5205351749111e-07
9.40614756721183e-09
-3.81301287663655e-07
-6.68480943730673e-07
-8.26813038529055e-08
9.57672369851303e-07
1.32801183761236e-06
1.12312630533329e-06
3.48524601504529e-07
-4.69779912914236e-07
-7.0148226014079e-07
-8.62966782561179e-07
-2.21968646349041e-07
3.63058040596836e-07
8.20809400303274e-07
1.43039586263743e-06
1.28688607112102e-06
7.46656338267315e-07
-8.63049864202272e-08
-9.78625821766693e-07
-1.0005208353144e-06
2.1869065947767e-07
3.11908488542695e-07
-6.4398887999315e-07
-1.74309387474778e-06
-2.61410863420099e-06
-1.7660713087892e-06
1.71300629192254e-07
9.86612863339977e-07
1.54760262990607e-06
2.05160975196798e-06
1.28021360962126e-06
8.91435436278666e-07
-6.83726482169673e-07
-1.60931594010455e-06
-8.56563996567534e-07
-4.09983684049882e-07
-1.283217229104e-07
1.10859016837004e-07
1.17249082475626e-07
-5.21456024485048e-07
5.96592985699238e-07
2.55018991285513e-06
3.39623286825569e-06
2.81265391565238e-06
6.79633812464798e-07
-1.36072783913745e-06
-2.02768489368007e-06
-1.93461390881916e-06
-2.24205200440373e-06
-2.49199927215532e-06
-1.99004872693546e-06
-1.33373887520482e-06
-8.87694280953435e-07
1.21615043486587e-07
8.54149596749952e-07
2.51369910588593e-07
-1.27454407146533e-07
1.98022503338246e-07
-7.58141803359099e-08
3.22853428271437e-07
1.70347408742162e-06
1.91108402115585e-06
1.70479631718764e-06
1.79226068738103e-06
1.42386030230441e-06
9.78595471036374e-07
3.30965649260926e-08
-7.48108691568325e-07
-2.67454981829917e-08
6.69010886945654e-07
2.12213756890281e-07
-1.24165862162196e-06
-2.56457232235031e-06
-2.07319407242182e-06
-1.22236237463164e-06
-1.40006994563813e-06
-1.09334853403393e-06
-5.82418070464546e-07
-2.18612966884223e-07
1.26585025253037e-06
2.27616057291395e-06
1.57778129105379e-06
9.51853544160655e-07
8.95630251354636e-07
-2.06003436450415e-07
-1.26858097048814e-06
-1.04946503344922e-06
-7.36933271176311e-07
-3.05981119462864e-07
4.01077971794751e-07
9.19400112547037e-07
6.27908645624472e-07
1.68926490155219e-07
6.0864975956448e-07
1.03193152950118e-06
4.83676466395195e-07
-5.21374454340721e-07
-1.0603992152414e-06
-4.89204085442935e-07
-2.67838690310039e-08
-1.93098450644465e-08
5.2440459874685e-07
9.39184520082927e-08
-8.12462837790732e-07
-1.10544968334256e-06
-1.00050883553015e-06
-6.43440555749705e-07
-6.52155968218983e-07
-4.13621608684867e-07
-1.90385319665466e-07
1.05063744844861e-06
2.07468558784027e-06
1.64359643349624e-06
1.43276287383037e-06
5.44817968432214e-07
-4.99621944117876e-07
-9.423321299953e-07
-2.03453933593297e-07
5.83556174664487e-07
1.6080475896767e-07
-5.29823880071676e-07
-1.05696415889991e-06
-4.71053995923259e-07
8.28297809552252e-07
1.28095209148928e-06
3.69032785102115e-07
-1.07919559589262e-07
3.40813063073188e-07
4.59539108425204e-07
4.63299476444174e-07
2.99363348143848e-07
-1.06598086613363e-06
-3.3698180466386e-06
-4.15221628053155e-06
-3.20830611481914e-06
-1.75708597976006e-06
-1.24875317461648e-07
9.59453831187337e-07
1.85567743847643e-06
2.58575547814431e-06
2.48875498369456e-06
1.35242107189484e-06
5.74340572662141e-07
1.23215961345573e-06
1.52922963868491e-06
9.62571617427275e-07
5.22887533557834e-07
-3.87149716248745e-07
-1.48587054129366e-06
-1.84618124293047e-06
-2.20736577935944e-06
-1.92814608352462e-06
-1.06358322681138e-06
-1.20389693330133e-07
1.34954242093115e-06
3.2063831890682e-06
4.42410901265858e-06
3.05364578960119e-06
8.37604265300376e-07
-3.73569212123945e-07
-1.15188916397374e-06
-1.41338763266474e-06
-1.202492606169e-06
-1.15341258430321e-06
-9.62249073496858e-07
-1.26397870261204e-07
-3.08895526106235e-07
-1.17498923391421e-06
-6.89147539329704e-07
-2.0458290794179e-07
-1.16465609073368e-06
-1.55865496851656e-06
-1.03711764628585e-06
-1.15103310637458e-06
-1.50450282926367e-06
-1.68928490523653e-06
-1.84085853229648e-06
-1.4604559460355e-06
1.21997512086609e-07
2.07416134529432e-06
3.41342261365649e-06
4.01702609040344e-06
3.88279114675442e-06
3.29368208354631e-06
2.30344499709683e-06
8.0417799542218e-07
-9.71238532108717e-07
-2.33961101208277e-06
-2.61116816488869e-06
-9.36907849118243e-07
1.10190811706945e-06
1.48266834960912e-06
1.04257867431982e-06
8.84680692730758e-07
1.06707252479308e-06
1.55497961777714e-07
-2.39884082381072e-06
-4.69323775206545e-06
-4.4804386659722e-06
-2.15624676963221e-06
3.22361861038427e-07
2.25871907026141e-06
3.98001142392402e-06
4.7153686125108e-06
3.35099356082426e-06
1.53316640632606e-06
8.5046163080987e-07
-1.71681130124347e-08
-9.64449837188283e-07
-9.60170345974872e-07
-1.07352955301423e-06
-1.0673455138749e-06
-1.65063161513817e-06
-2.31757513208234e-06
-2.16150117248858e-06
-2.2730808404571e-06
-2.11739124023219e-06
-1.78271009737849e-06
-1.63045042341271e-06
-1.62470845607399e-06
-1.39129880597558e-06
-1.00353385228496e-06
-3.3589497831916e-07
2.37268551326492e-07
7.78739586532318e-07
1.71262926111299e-06
2.02081465275555e-06
1.37826094615833e-06
7.96993853495179e-07
8.80907249908674e-07
9.30666114670401e-07
1.13958451044736e-06
1.26396294645917e-06
1.2166645218648e-06
1.34385633173543e-06
1.52624000922901e-06
1.14352010877641e-06
2.93453751483524e-07
-2.56370993888436e-07
-5.81399703849356e-07
-2.77713904581498e-07
6.73202224116466e-09
-1.25855870013806e-07
2.29313181014082e-07
7.13794676069181e-07
3.18717416719555e-07
-1.76122929420083e-07
8.13210576454031e-08
1.94543324857184e-07
2.38662828894482e-07
6.0333297017224e-07
5.59429890717605e-07
1.94487514138077e-08
-7.23530560560523e-07
-1.83657281801316e-06
-2.82166439316318e-06
-2.88769740446178e-06
-2.43753457589219e-06
-1.2779742593095e-06
3.03951946647896e-07
1.46196164549815e-06
2.28197857345352e-06
1.97223308814154e-06
5.7122728322618e-07
-3.78948448314936e-07
4.76030876889379e-08
4.17385204303838e-07
2.39276648690671e-07
8.68193666725121e-07
1.22456752841322e-06
1.26515003899039e-06
1.4177380544941e-06
4.09988572343308e-07
-8.11719737246255e-07
-1.15613118825335e-06
-1.17373670781897e-06
-1.31831423477873e-06
-1.36412749427928e-06
-1.32811621327654e-06
-1.27422454113373e-06
-1.22812752976015e-06
-1.35989108523688e-06
-1.38406410545495e-06
-1.17761127602829e-06
-8.04233476558347e-07
-6.39042732365923e-07
-7.30858503738301e-07
-7.54321793579985e-07
-2.70691730479461e-07
-2.25239189597446e-07
-5.11176721025718e-07
2.09251161254481e-07
1.29389984658803e-06
2.94212733129105e-06
4.66098823716052e-06
5.08540339601841e-06
4.38630412243291e-06
3.89620217336289e-06
3.54172395115602e-06
2.04195123363998e-06
1.6829393494601e-07
-1.11092783297537e-06
-2.16911611886924e-06
-3.36833983720691e-06
-4.08190909069248e-06
-3.79580851491908e-06
-2.7544576460772e-06
-1.65058555998898e-06
-6.31194808122353e-07
4.39887668403522e-07
1.44780771643298e-06
2.13182706512589e-06
1.72184296805304e-06
4.35818575618907e-07
-4.45327212914805e-07
-6.06368967950336e-07
-1.02537356234565e-06
-1.3134432697271e-06
-9.47493915182634e-07
-3.03545729554794e-07
4.02904551628875e-07
3.81818892689988e-07
-1.73387661547834e-07
-6.11681039587555e-07
-8.44699060209968e-07
-1.04793343294995e-06
-6.9817444616348e-07
-2.45643188933907e-08
1.68274007606636e-07
3.12948560956177e-07
2.85267402411009e-07
3.45512647117404e-07
3.13878537197097e-07
-4.66210550809909e-08
-3.16831997391284e-07
-1.2964197950545e-07
4.0129571664296e-08
-3.93275176466746e-07
-1.95635644261022e-07
-8.15687518578528e-08
-2.77160866589139e-07
1.17686915452744e-07
5.9724135526966e-07
8.4779338503783e-07
7.6150357233749e-07
5.31548695051397e-07
2.12995074439913e-07
5.26925374266007e-07
1.81983524448296e-06
2.71479794579085e-06
1.56609976208929e-06
1.7246012362364e-07
-7.3515218796401e-07
-2.0220003020528e-06
-3.41010184056236e-06
-4.47511051687176e-06
-3.59161943463074e-06
-1.68250200024572e-06
8.92903941789632e-07
3.41844926136047e-06
5.45085548228144e-06
6.59719842276447e-06
5.52032999201341e-06
3.49636643893894e-06
1.0778650207059e-06
-1.03676486199178e-06
-2.49894336334515e-06
-2.88238360040831e-06
-2.55395296104171e-06
-2.90145288231727e-06
-3.14732097521826e-06
-2.53617699544975e-06
-1.50503729036421e-06
-6.99160564072863e-07
-3.56550169301432e-07
1.2264313743106e-07
6.40784772718874e-07
4.95159173882919e-07
4.3152897653692e-07
3.61494736399685e-07
-1.32940698236947e-07
-2.3037096279052e-07
-4.48702576481093e-07
-9.72331213614433e-07
-1.24985386793755e-06
-1.3578314897159e-06
-1.21515674499643e-06
-4.38706272663392e-07
7.71273893896792e-07
1.42312856476135e-06
1.36642379228288e-06
8.39549460230374e-07
6.74748663662301e-07
9.47678597591474e-07
1.04456304364844e-06
8.46222345879684e-07
7.41780811887469e-07
1.06821353651611e-06
8.16593430928172e-07
-1.55883789904525e-07
-7.5240435140107e-07
-6.21092279719401e-07
-7.43542210125269e-07
-8.6155153948098e-07
-6.16567856157999e-07
-4.73287118124702e-07
-2.87277864377197e-07
-2.10837061881793e-07
4.66324983667253e-07
1.48854099382501e-06
1.31178584518252e-06
6.51807310892454e-07
4.79262379121198e-07
2.84172091855109e-08
-9.33406128616723e-07
-1.7679678181878e-06
-1.97405441807379e-06
-1.65645307063398e-06
-1.17351308714692e-06
-2.40300229248542e-07
1.21000144696103e-06
2.9031326758929e-06
4.24715008032703e-06
3.9853562436171e-06
2.78580243053194e-06
1.63380890078874e-06
3.44565219266696e-08
-1.63407787141897e-06
-2.57952525977158e-06
-2.87472526305261e-06
-3.18382959230903e-06
-3.04512849613771e-06
-2.33064890638182e-06
-1.36272293664618e-06
-1.80908561578982e-07
6.18306058650356e-07
9.77719348729702e-07
8.01190588808064e-07
2.35892020811962e-07
-2.44940163760626e-07
-4.97174312103866e-07
-6.60048212898987e-07
-1.6958567178123e-07
1.04333091569171e-06
1.97104975874384e-06
1.72832980038274e-06
6.41405919783021e-07
2.47205459585218e-07
4.5660257298535e-08
-9.79153374768825e-10
1.89323157208182e-07
-1.33359270914207e-07
-3.74264793212012e-07
-7.45086439744411e-07
-7.2445521655852e-07
1.2856835588159e-07
7.40503683726664e-07
8.56375674908445e-07
7.13052062019885e-07
3.02497555110502e-07
-2.42474555757032e-07
-7.50266982601205e-07
-1.33495056251464e-06
-1.63953307165399e-06
-1.57903078941602e-06
-1.45794365232776e-06
-8.67774758012371e-07
2.63109560748979e-07
9.67740526720844e-07
7.7721626060516e-07
7.44321805246161e-07
7.71461528228355e-07
6.80137426439523e-07
1.15320871361777e-06
1.3996947826472e-06
1.18202238688611e-06
1.14659641799101e-06
1.41946371296864e-06
1.38561841687278e-06
5.76693306218843e-07
-1.92652451682744e-07
-3.1697423440912e-07
-7.763237079923e-07
-1.71525585572904e-06
-2.08188328714882e-06
-1.5871933282048e-06
-8.20355253330975e-07
-4.4116943157511e-07
1.92173212816733e-07
9.05334969303581e-07
8.12663012773229e-07
1.12448549335626e-07
-6.13655799626101e-07
-6.56433379010639e-07
-6.87271280492813e-07
-1.14922904504648e-06
-8.82919651159101e-07
-1.65812648027709e-07
1.15871345880329e-07
2.86805318806271e-07
5.59794703564941e-07
3.26548216095372e-07
-6.06995807020955e-07
-1.5344518080199e-06
-1.75854449425607e-06
-8.44315043001955e-07
3.94410462408836e-07
9.73689364234322e-07
1.00891743982532e-06
9.8631667076349e-07
1.63084042842596e-06
2.24417450682558e-06
1.7522008008094e-06
1.0398704594795e-06
6.27468703019049e-07
9.69664061842942e-07
1.45606371102596e-06
3.22774702714518e-07
-4.77566039570329e-08
8.60070484578126e-07
6.57613810173189e-07
1.25177453552964e-07
-1.01977211726757e-06
-2.95104696052134e-06
-3.67545143965035e-06
-2.69710130124593e-06
-1.66424519338456e-06
-9.51919706529827e-07
2.92084110326668e-07
1.57997510439996e-06
1.85715187889367e-06
4.42967362410408e-07
-1.34078271887311e-06
-1.85366072487098e-06
-8.55036336869306e-07
7.29336966554209e-07
1.43546264705205e-06
1.40555928504678e-06
1.55350092600931e-06
2.20724225896368e-06
2.46323014399291e-06
9.33939101034614e-07
-9.68552408106495e-07
-1.58624594443424e-06
-1.86822929770948e-06
-1.76958915775159e-06
-1.62282876334202e-06
-2.17101001492652e-06
-2.41419496830005e-06
-2.02253970535034e-06
-1.49066250352715e-06
-6.61379680241447e-07
1.25992164674501e-06
2.7293150291144e-06
2.28639934586015e-06
1.65605298379639e-06
1.3051614863204e-06
9.70718263536666e-07
5.03655926064543e-07
-1.58622650379696e-07
3.31153831977172e-07
7.8401706558073e-07
7.95902091899078e-07
1.7547249051547e-06
2.17190027173667e-06
2.38231059402868e-06
2.00897900090241e-06
3.90640995102671e-07
-4.97372375489208e-07
-1.44322046554707e-06
-2.05447591710418e-06
-1.2902415096238e-06
-2.25902348846521e-08
8.39307288816372e-07
4.03892522914033e-07
-8.03468273796605e-07
-2.48578230521455e-06
-4.02434889616726e-06
-4.65148968467726e-06
-4.28019714236479e-06
-2.58678019208229e-06
-6.19338385177444e-07
1.16909115126086e-06
2.81860480789772e-06
3.31493948591348e-06
2.1787911729127e-06
8.41211796964362e-07
6.16173640351758e-07
4.2935859321068e-07
5.78684035517174e-07
5.81645112644759e-07
3.47982447359025e-07
1.10006155133843e-06
1.64164011797831e-06
7.29198404009242e-07
-8.69745506348812e-07
-1.32669330155042e-06
-1.37760185246549e-06
-1.49933876829379e-06
-1.88365709956706e-06
-2.58441415026662e-06
-2.41628075941198e-06
-1.19091119723829e-06
1.22655858359318e-06
3.86667732583311e-06
4.79668032926909e-06
4.42640189547213e-06
3.47263730696503e-06
1.19057564373508e-06
-6.2011647948729e-07
-1.43316164196523e-06
-1.61770638101193e-06
-1.35894501596125e-06
-1.61979724859132e-06
-2.10356795823471e-06
-2.92294039717555e-06
-2.98264945097629e-06
-2.08600141887697e-06
-6.32468605032004e-07
1.997817592172e-06
4.5584479766532e-06
5.22479024330017e-06
4.62246020599603e-06
2.69585870037121e-06
-1.81661700612262e-07
-1.70146350064196e-06
-2.13227727462701e-06
-2.38963017570062e-06
-3.55334767118977e-06
-4.63003622011758e-06
-3.28293467000092e-06
-1.20539945959467e-06
3.38510278213439e-07
1.89533330620411e-06
2.43100997162455e-06
2.81526024039336e-06
2.87840009846734e-06
8.30666812608486e-07
-5.02091657756808e-07
-9.00722747049209e-07
-1.9957891003247e-06
-2.86294547636675e-06
-3.41475368951434e-06
-2.2226799049661e-06
-1.15792415809728e-07
1.38891147709319e-06
2.71184248414235e-06
3.49300455426578e-06
4.46571512707411e-06
3.90415326450289e-06
9.49872082080428e-07
-1.12187815909289e-06
-1.35771530150419e-06
-7.42618878081115e-07
-6.08228163671838e-07
-1.02766177787418e-06
-1.11965715546848e-06
-1.75262806453228e-06
-2.47691922397913e-06
-2.78098168115857e-06
-3.08162012169869e-06
-2.10408971833945e-06
-1.10173567195414e-07
1.08107030314141e-06
1.58152174743233e-06
2.16917498917797e-06
2.43617639138932e-06
1.45107121128154e-06
2.59044253683013e-07
9.78917554372704e-07
2.70055342986441e-06
2.52079003491788e-06
7.15823310712475e-07
-1.02743852585092e-06
-1.83704252737486e-06
-1.68809690353544e-06
-1.2211085991948e-06
5.89063446127205e-07
2.54544689772054e-06
3.55029066516883e-06
2.2344566750397e-06
-2.94014254091217e-07
2.30554372485962e-07
4.42158759056765e-09
-2.1374703210705e-06
-2.78660496611223e-06
-3.70695699609857e-06
-3.2313464477653e-06
-1.69454876555696e-06
-1.25892704062845e-06
6.68807075567544e-07
2.027513232073e-06
2.6007964422543e-06
3.07499186757829e-06
2.04988920567734e-06
7.72591894250343e-07
-1.48890469572265e-07
-8.23512768085231e-07
-1.74404721279173e-06
-2.5391991594219e-06
-2.15149673874275e-06
-9.52830402151112e-07
6.58714781802536e-08
8.99913983378506e-07
5.77490363318482e-07
-7.96692797996514e-07
-1.70133855787033e-06
-1.7461323365155e-06
-1.96879478522812e-06
-2.37185103567272e-06
-1.41605119064402e-06
7.53975282307581e-08
5.82949694146607e-07
2.52098803513457e-07
7.45732406041413e-07
2.29717458136992e-06
2.7122156048166e-06
2.69496314151481e-06
3.15903012029616e-06
3.11110829303581e-06
3.05790464626638e-06
1.89505715850927e-06
-2.49273551033336e-07
-2.12147050523248e-06
-3.56538064937792e-06
-3.96296707274306e-06
-3.45777512799013e-06
-1.95508750843883e-06
3.11168616818167e-07
3.03730076295819e-06
5.5090468275944e-06
6.9389445278754e-06
5.22775140040205e-06
1.00019320372971e-06
-7.46032380994031e-07
2.5568705868342e-07
1.17296106496814e-06
1.56491502830776e-07
-1.63556375529621e-06
-2.94334605591978e-06
-4.60913999413857e-06
-6.06757579148308e-06
-6.20321296820108e-06
-5.15399504512711e-06
-3.39214011704274e-06
-9.33722415680301e-07
1.17608142813167e-06
2.47186724507964e-06
2.11470429735644e-06
9.02601007240022e-07
3.00827515561856e-07
6.12298624193378e-07
2.03994338167051e-06
2.82672704398258e-06
3.13278374672582e-06
2.61608004825305e-06
3.10343694821708e-08
-1.87394197659249e-06
-2.00800918309039e-06
-2.65232449740114e-06
-3.4422037034909e-06
-3.00137080818201e-06
-1.10544002566637e-06
1.48371944151151e-07
5.63510999775791e-08
1.63420461870923e-06
4.29811375805097e-06
6.51523530371272e-06
6.90703025526319e-06
5.59310465319369e-06
3.87183102015199e-06
5.02494960310853e-07
-1.7211690346174e-06
-2.47767869589399e-06
-4.37069990581457e-06
-5.24112390003786e-06
-4.82831454121783e-06
-4.01681089415105e-06
-2.9862970016052e-06
-2.45794164920821e-06
-1.71851406673035e-06
2.5878673619923e-07
1.90195430038e-06
1.18817104475278e-06
8.50928404987646e-07
1.80651498270321e-06
1.84905167570564e-06
1.88768209841849e-06
2.24608283636221e-06
2.66603701748565e-06
3.14272518353106e-06
1.4157691054163e-06
-1.69383767963261e-06
-2.64247858534036e-06
-2.19930583133187e-06
-1.36057432509145e-06
-8.22180882230027e-07
-9.46590153917107e-07
-6.87297056760651e-07
-9.63687170604109e-07
-1.61277417614962e-06
-2.26079372974807e-06
-2.23479084711994e-06
-1.84970909244215e-06
-2.01907978743265e-06
-1.15477589863299e-06
1.61197770581561e-06
5.3192953687386e-06
6.39687080087657e-06
4.94839914414982e-06
3.77684836286545e-06
1.53077832330642e-06
-8.80595361959812e-07
-1.36695169448153e-06
-9.36216867076892e-07
-9.7687457493167e-07
-1.02836694174529e-06
-2.16416936956579e-07
5.89515189695541e-07
1.10395743004167e-06
4.91647366773884e-07
2.40122275687834e-08
1.08620692931978e-06
2.82404019750621e-07
-2.09171934022318e-06
-3.68793111842174e-06
-3.8626482603359e-06
-2.85859522994984e-06
-3.14229399327141e-06
-2.78536151332764e-06
-3.57240325479932e-07
1.01424410330014e-06
1.97351900168571e-06
3.26471571847623e-06
3.34620187576514e-06
2.3555145906758e-06
4.86490709965128e-07
-1.88343840998677e-06
-2.5584502304885e-06
-9.47897324629972e-07
1.28867656394373e-06
3.39344229733967e-06
3.23094045594348e-06
5.59957678973107e-07
-1.01805660801746e-06
-1.05978939855447e-06
-1.0473186837617e-06
-1.32118232256493e-06
-1.33444685489698e-06
-1.21205617522399e-06
-4.27664484505778e-07
1.23978187372396e-06
1.28099295447668e-06
3.74374714320697e-07
3.69933642835712e-07
2.130023376356e-07
-1.60164848397234e-07
-1.63049055846228e-07
6.1009864571583e-08
6.32379138793197e-07
3.26026183985719e-07
-3.16136455728139e-07
-7.33520991814417e-08
-1.70274292774878e-07
-1.80594132765565e-07
4.41693166669739e-07
8.30941341033144e-07
7.41962697466079e-07
1.75433795828889e-07
-7.78305236351658e-07
-1.12274465419266e-06
-1.27783708806423e-06
-1.09715973469352e-06
-5.3805538159608e-07
-1.27278984813747e-06
-1.83574398743968e-06
-8.18026027266262e-07
9.37394311946114e-07
1.34334264581981e-06
8.90487595215255e-07
1.46060334478532e-06
1.06256794875841e-06
2.03042624075753e-07
2.40564642205606e-08
-3.57048955215822e-07
4.21737207023174e-07
1.12959313476706e-06
-2.44857907949505e-07
-1.34674305192225e-06
-1.23837933395079e-06
-9.19217124207055e-07
-3.60633972246648e-07
3.29160896207794e-07
7.8247410629938e-07
8.14142107213619e-07
5.01829929116721e-07
2.40990647478638e-07
1.03670428486017e-07
-3.66250781652895e-07
-1.37718679811681e-08
6.41426295504075e-07
5.42467244090326e-07
-3.25374286168761e-07
-2.08697628222123e-06
-2.6995940735037e-06
-1.91894103734132e-06
5.99906051078527e-08
2.61797102216303e-06
4.59041390050879e-06
5.95143911664291e-06
6.30282868084143e-06
3.13107054538684e-06
-1.27865847413732e-06
-1.77794650415599e-06
-1.25828501930788e-06
-3.27628863421787e-07
-5.96943850843706e-07
-1.6678854598579e-06
-1.68791702316442e-06
-2.39193446181372e-06
-2.21705743025562e-06
-2.16595333239778e-06
-1.54424283875737e-06
-1.51074430352083e-06
-2.26250008485183e-06
-2.3209620670856e-06
-2.43782297313908e-06
-2.16810722537273e-06
-1.70288890529576e-06
-1.02563170840154e-06
-8.87543757924588e-07
-2.83909953351652e-07
3.85328201994514e-07
5.82471074458353e-07
1.11165975522545e-06
1.40955210975416e-06
1.40020966029645e-06
1.10110196962801e-06
1.00526478183156e-06
2.06147443493547e-06
3.75121629957058e-06
4.20729654593161e-06
3.67166475643636e-06
3.22475442296823e-06
2.47862043343943e-06
8.25343533528151e-07
-8.19126603913162e-07
-1.27821672181148e-06
-1.46108387820822e-06
-1.47411101568906e-06
-8.09538540491892e-07
2.32272067690741e-07
7.73392315477992e-07
-3.28590510156463e-08
-5.70738663211487e-07
-5.88616568282587e-08
8.443626192266e-08
-3.17350958819204e-07
-5.47088158203173e-07
-9.92973546540726e-07
-1.30292415779968e-06
-6.8684389504324e-07
-3.02880484952643e-07
-1.02928310535197e-06
-1.9751600251232e-06
-2.01546547754918e-06
-1.64123344043823e-06
-1.41452279877804e-06
-1.28811745784323e-06
-1.25872592876943e-06
-1.31534041414259e-06
-1.01937282083111e-06
-1.7594435850766e-07
2.72967317299527e-07
7.38044802682423e-07
1.43673769034089e-06
1.96135120754782e-06
2.28491957810272e-06
1.76545193249884e-06
8.84394055919607e-07
6.36950925212915e-07
7.26469328251809e-07
7.49548054095814e-07
1.00204976675904e-06
1.05556292659748e-06
6.1702947147294e-07
3.22095960547199e-07
1.60985456944072e-07
-1.4467165571984e-07
-4.90475029232382e-07
-1.03366593926664e-06
-2.10696954858677e-06
-3.08201026576862e-06
-2.69762662807935e-06
-8.40451903616691e-07
1.18477723927653e-06
2.47753072739383e-06
3.60789288640518e-06
4.2645519721067e-06
3.74034228128211e-06
2.1416503686832e-06
2.35209478900359e-07
-7.83308029530419e-07
-1.45700217963487e-06
-1.24204452979078e-06
-8.20514963765151e-07
-1.78773363818542e-06
-2.02770338715671e-06
-1.39567401286576e-06
-1.16543233067634e-06
-1.20251760387861e-06
-1.0862919852266e-06
-4.94877675347298e-07
3.31820003244957e-08
-7.85945880867881e-08
-7.05264262990579e-07
-1.08730267034135e-06
-7.78821518118086e-07
-3.1046047527247e-07
2.44241973785311e-07
7.66603474166727e-07
5.49325752599803e-07
6.9210269033549e-07
1.43800825367217e-06
7.19215228124175e-07
-1.32623311306901e-06
-1.91022486504742e-06
-9.47243906959214e-07
-4.56027090019562e-07
-4.49199538263973e-07
3.43239790597226e-07
1.86389685777924e-06
2.12268244761114e-06
1.24701382945245e-06
6.58145231976724e-07
3.94431047141424e-07
3.1096895919515e-07
2.0779499589149e-07
4.33443843021921e-07
6.62771885922729e-07
5.29741371583132e-07
6.16924957086758e-07
3.71408591819544e-07
-1.78836152405385e-07
-2.77021104109174e-07
-1.76652286891977e-07
-3.93716883518146e-07
-7.46887356745695e-07
-9.86519752933759e-07
-1.10251049857285e-06
-1.04405205666832e-06
-8.72202122485554e-07
-6.6754483198352e-07
-5.93275553623697e-07
-1.13610314280726e-07
4.9102468417906e-07
4.72133027091044e-07
3.53646686567338e-07
3.37574579951026e-07
3.00487407183653e-07
3.9137232161854e-07
8.33298835219501e-07
1.09258937987823e-06
3.9283458792588e-07
-2.6104030992238e-07
-1.72381065584187e-07
4.14138673763369e-08
-1.26888669010553e-07
-3.99261806601176e-07
-7.45354192783177e-07
-9.89155400202854e-07
-2.54256189916532e-07
1.48011009265254e-07
1.55503968625711e-07
6.39113712654166e-07
1.12306551892971e-06
1.31557814385485e-06
7.38008780088752e-07
2.1749675098675e-07
-2.77618870778708e-07
-7.29553302500567e-07
-6.89992102791071e-07
-8.74342124908626e-07
-1.38622950488697e-06
-1.78462640428119e-06
-1.08760448274788e-06
1.2152123466604e-07
8.78065710669025e-07
1.45185276287369e-06
2.13556913021499e-06
2.67931692720845e-06
1.35693187368247e-06
-9.70864971440166e-07
-2.61779920445573e-06
-3.31470981965722e-06
-2.22913771141067e-06
-4.53538401601372e-07
1.17913341370943e-06
2.20801699566311e-06
3.28108727165581e-06
3.87766303778693e-06
2.70478846827187e-06
1.01231347072814e-06
-4.45009384659668e-08
-3.21438134246804e-07
-1.41096330897135e-06
-2.19140630203519e-06
-2.26231855431753e-06
-2.13293675876942e-06
-1.65584960719224e-06
-1.21833855563637e-06
-1.03504662210748e-06
-1.28674822229683e-06
-9.6360680552773e-07
-5.06254054925166e-07
3.14782754650512e-07
7.10545490231173e-07
5.22452350424218e-07
-1.24905853572578e-07
-1.02639896373211e-06
-7.91902996899056e-07
-4.13829444539665e-07
-2.43560709452567e-07
3.272677134859e-09
7.14047258527362e-07
1.42319006251189e-06
1.99186862072351e-06
2.13917689750682e-06
1.51002841551981e-06
9.15041303602265e-07
7.41706277710988e-07
6.81314432788631e-07
3.72024047034658e-07
4.3406037810811e-07
-1.05190930679048e-08
-5.83317047322119e-07
-6.36297029004166e-07
-6.40877066081848e-07
-5.56502336427856e-07
-3.9653580298348e-07
1.03677947178366e-07
4.72549747040304e-08
-4.26698228707491e-07
-6.02138708894244e-07
-4.06152211353371e-07
-1.9387522545222e-07
-3.84780983927046e-07
-5.83502089080124e-07
-3.75470536303944e-07
-2.04767930207147e-07
-1.06609222791073e-07
4.20672299761469e-07
4.94843895963366e-07
1.90622646134124e-07
-8.74165997006466e-08
-6.16726302151745e-07
-8.22684115580283e-07
-5.94737992315959e-07
-3.85405262864691e-07
-1.61012920495396e-07
7.58817133029787e-07
1.96258423525825e-06
2.19532128609851e-06
1.2189686776728e-06
5.48355810837593e-07
2.51801650965976e-07
-8.29980010470432e-07
-1.49727821362408e-06
-2.50492097677692e-06
-3.21955328993877e-06
-2.75551743232556e-06
-2.10659988479183e-06
-8.42075557158754e-07
7.40080385656302e-08
1.89323926257068e-06
5.17344075036518e-06
7.74136493622327e-06
7.34083846372872e-06
4.56623226029754e-06
2.37610987655782e-06
4.09193908686351e-07
-6.88880862482581e-07
-1.02564848449149e-06
-1.85714445223325e-06
-1.52374908064912e-06
-6.3045332672762e-07
-1.13258204259118e-06
-2.94506970132216e-06
-4.39709675057303e-06
-4.63485981922434e-06
-4.58074911440808e-06
-4.26864845938071e-06
-3.05800967713561e-06
-1.89896593705249e-06
-1.51061696704442e-06
-2.01337686727016e-07
1.20313936153545e-06
9.12007559504438e-07
9.11252147576316e-08
-5.87324237332584e-07
-4.19054304119995e-07
5.58339264099742e-07
1.03832519299748e-06
1.21516113314113e-06
1.10370409288404e-06
9.57307882549863e-07
1.27884794567582e-06
2.05667798318676e-06
2.94945399165198e-06
3.24511567286618e-06
3.08911702093353e-06
2.09726564992266e-06
8.18398036241761e-07
1.83136166028674e-08
-5.88028252408389e-07
-1.02122331476156e-06
-1.06429533097309e-06
-3.46037378761066e-07
3.50476638925532e-07
2.16621495430962e-07
-2.85696582325267e-07
-5.2561557410344e-07
-5.31061438391454e-07
-5.31047556366114e-07
-6.88810262986773e-07
-3.68759785893365e-07
4.55265615180465e-07
7.62966301833495e-07
6.94697735101157e-07
1.84686605109321e-07
-1.89577874601532e-07
-3.78433558477878e-08
-4.7188962665137e-08
-2.58220859415834e-07
-8.63309873212916e-07
-1.24682320275031e-06
-1.66113421894599e-06
-2.13741600257879e-06
-1.59656965074319e-06
-5.80599165815849e-07
6.29119252253089e-10
-9.21197893191993e-09
-7.9842584915275e-08
3.53695597780253e-07
1.40882183024703e-06
2.67639749220457e-06
3.41856493200347e-06
3.64692012488829e-06
3.68580099921564e-06
1.80541038439411e-06
-1.30639886232574e-06
-3.19197523898071e-06
-3.81672632196302e-06
-3.44764102546329e-06
-2.93381443395164e-06
-1.87277846244327e-06
-1.30140684029912e-06
-4.22007868947093e-07
2.35821247956927e-06
2.90716266999706e-06
2.33244789230398e-06
4.33317521183734e-06
5.94179608429239e-06
4.19083535838253e-06
7.43526377869778e-07
-2.69972919203009e-06
-4.67153388120608e-06
-3.82106924677693e-06
-2.9812972162945e-06
-3.35901264859683e-06
-3.53545211070632e-06
-3.11474316360032e-06
-1.9945354860122e-06
-9.31229697623827e-07
-8.15448476730138e-07
-8.79809313979523e-07
-4.08240186792025e-07
3.14301285739515e-07
9.56137390013324e-07
3.05318930788782e-07
4.29341294922376e-07
2.02135881539505e-06
1.98337137671911e-06
8.86345596436609e-07
7.35944091624708e-07
1.45711453297567e-06
1.74208359155425e-06
1.83614503568666e-06
1.46279681411031e-06
3.58521480802606e-07
3.61477330163437e-08
8.96060730555275e-07
1.82012168754155e-06
1.69603010807012e-06
1.73292592481112e-06
1.3849631281512e-06
-1.1298589601151e-08
-3.34237679851399e-07
-4.46567548739835e-07
-1.54457756855861e-06
-2.58790834054896e-06
-2.83985431379341e-06
-1.95770217719708e-06
-9.06998717271957e-07
1.79237514822619e-07
1.5388954832438e-06
1.78636140992991e-06
1.49416545102075e-06
1.19147684760765e-06
1.03368516006545e-06
1.00074940643841e-06
4.03264066433757e-07
-7.63478205860978e-08
-6.11606453011641e-07
-8.34069168301924e-07
-1.78388298130913e-06
-2.79813818699128e-06
-2.22665200010575e-06
-1.92165436223759e-06
-1.66320028602558e-06
-1.86775687924038e-06
-2.23337601777667e-06
-2.39265860554062e-06
-3.32788095764027e-06
-3.86390265735813e-06
-2.1233012622101e-06
1.38032646504624e-06
3.93406055926465e-06
6.33182144700627e-06
7.64831042518954e-06
6.82651579374333e-06
5.57428535354783e-06
3.04701875481994e-06
7.36127253518771e-07
1.68407182509254e-08
-1.72179568794731e-07
-4.58615035795275e-07
-9.29916484813631e-07
-1.55200665985675e-06
-2.58446547444025e-06
-3.486547125809e-06
-3.74443865486298e-06
-3.1723558627754e-06
-2.04469285768158e-06
-2.38868228553992e-07
8.1457889340332e-07
-7.21688750712615e-07
-1.74292045247414e-06
-5.54346693377256e-07
1.51256290987721e-07
1.7729840768627e-09
1.11250855076259e-07
6.56545233965581e-07
7.28578264131941e-07
-5.50466620709556e-07
-1.05815089578009e-06
1.20055070045087e-06
3.40992519712114e-06
2.75599144228757e-06
1.46329618898026e-06
9.83057300786384e-07
5.8939291718668e-07
4.22043423099612e-08
-1.43687623597187e-06
-3.1501845374169e-06
-3.21142099776885e-06
-1.42433565956788e-06
-6.253102629637e-08
5.51355400279009e-07
3.85222919928793e-07
1.63671498511643e-07
1.37521647696254e-06
1.46420940161205e-06
9.36755972504017e-07
8.14398826116007e-07
8.48593351242881e-07
-5.90186791658876e-07
-2.95296190847319e-06
-2.71319418278895e-06
-1.1416940481851e-06
4.55211078032253e-07
2.30838679246964e-06
4.1864530042699e-06
4.32774971564209e-06
2.74566516773416e-06
8.72245964798621e-07
1.00222101018775e-06
9.77256516295039e-07
-1.01742433287425e-06
-1.98779589613235e-06
-3.22872695586662e-06
-3.2812572878024e-06
-2.52974422212071e-06
-2.37986346781342e-06
-1.02993617029548e-06
8.06128033642304e-08
-1.09105764566214e-07
-2.49903401679302e-07
-1.26331813824036e-06
-2.83456689469097e-06
-1.96485977028602e-06
-4.45315759911668e-07
1.54505872005732e-06
3.29610247641736e-06
3.19315794959936e-06
3.22211037439281e-06
2.22073681812578e-06
1.14176851690069e-08
-5.96057770900552e-07
-1.14469453487249e-07
2.59295590436674e-07
5.20706329806274e-07
7.03173387682638e-07
4.45631089110735e-07
-1.70834706961564e-06
-3.58463099904023e-06
-2.80700101436918e-06
-1.15346647560623e-06
2.62482983029656e-07
1.74881701522231e-06
1.90325797785452e-06
9.23521587306011e-07
-4.47986039476953e-07
3.39798519723051e-07
2.38571330115945e-06
7.8522246496995e-07
-2.09046125621026e-06
-4.13049104497957e-06
-2.08760860130117e-06
1.922742027701e-06
2.75250543863483e-06
2.85222565746071e-06
3.15564183009799e-06
3.49436457123101e-06
3.99551070056522e-06
3.80969329066383e-06
2.40480236229088e-06
1.15608487401887e-06
-8.04470026702189e-07
-3.97106424411228e-06
-7.07610311825066e-06
-8.55591188975635e-06
-6.97103516335951e-06
-4.08978858965052e-06
-3.45767492513448e-07
3.50418932827246e-06
4.30680785933261e-06
1.32153318459103e-06
-3.19467483603924e-07
1.0408852746717e-06
-2.54246161422616e-07
-2.60560703333354e-06
-2.21160628970493e-06
-9.22585965611201e-07
-1.78144090639391e-08
3.96933989098993e-07
5.44584610614958e-07
3.544265591591e-07
-9.17681269630842e-08
-8.74163803779329e-07
-8.1510083591057e-08
1.36446232446631e-06
1.40991545016654e-06
3.31237740084052e-06
4.00112836164209e-06
1.06653166330356e-06
-7.24614354575247e-07
-1.03990689677687e-06
-1.62199030443166e-06
-2.1743690584287e-06
-2.09047441999157e-06
-1.66779504709704e-06
-6.28280863578647e-09
2.22563603299772e-06
2.31344098354647e-06
1.89437153742589e-06
2.40760016452267e-06
2.48434894589636e-06
3.67125245418536e-06
4.3591203986202e-06
1.7723672977397e-06
-1.21512563933447e-07
-3.48222504732702e-07
-1.31176527104136e-06
-2.91471697922056e-06
-4.19475438516706e-06
-5.84547244704008e-06
-6.35748998307729e-06
-4.6655540948566e-06
-1.96069103661268e-06
3.48565792298987e-06
7.82741541791355e-06
7.36278872675541e-06
5.07354487801133e-06
-2.11862490963264e-07
-5.10101242948238e-06
-3.27557510326409e-06
8.5122061251935e-07
2.74730648263666e-06
1.15124804439291e-06
-4.67106385657955e-07
-1.17946635550269e-06
-3.89608268876259e-06
-6.31038037333276e-06
-6.81644731869208e-06
-4.87003857951611e-06
-2.10492332140092e-06
9.12637049698694e-07
2.95253454475586e-06
4.14068621821086e-06
4.18203350111973e-06
3.91403987479174e-06
5.49011497302237e-06
4.16501852116844e-06
9.64124132593948e-07
-1.26277944224511e-06
-1.68554888682599e-06
-1.52386374436415e-06
-3.73046665521171e-06
-3.61697924355372e-06
2.48624966732716e-07
1.67108895747548e-06
1.43054715514123e-06
3.43915127492115e-06
2.70810331779418e-06
-2.1363888159538e-06
-3.22335480811132e-06
-1.83650828877959e-06
-2.14466063540679e-06
-2.29231656500041e-06
-1.96013098815033e-06
-2.112931203788e-06
-3.4403444936012e-06
-3.17472003973003e-06
-1.34056239376527e-06
2.41684006873686e-06
5.9721165127293e-06
6.71157523851853e-06
6.94721714703018e-06
5.98276549353137e-06
6.31304739709024e-06
5.41385228992934e-06
9.6195178913964e-07
-2.15334241477714e-06
-3.23769545379615e-06
-3.82965311028081e-06
-4.55504616703258e-06
-4.01349793332239e-06
-2.09526307325334e-06
-2.21491882949392e-07
4.08242700862769e-07
-1.70707150916892e-07
-4.12122348096184e-07
-1.72343571965674e-06
-6.70524429849623e-06
-9.21275800491553e-06
-5.44967990371172e-06
-4.58131103719283e-06
-4.89671598054903e-06
-3.68517651525112e-07
4.54248961470439e-06
7.917403978347e-06
1.20438661665317e-05
1.55597004717786e-05
1.34440065423289e-05
6.53227108236185e-06
-8.07988490364089e-07
-5.68504077620662e-06
-7.0915523985587e-06
-3.39711872234632e-06
2.59851733553707e-07
-3.07446533442141e-06
-6.57982937566713e-06
-6.38833583424313e-06
-3.82351781535831e-06
-3.77133412509279e-07
-8.66888192428622e-08
-1.7633827977749e-06
-3.59756534426026e-07
5.0268672117554e-06
7.37251251862704e-06
1.4691912170168e-06
-5.28530242565724e-06
-6.2446717140477e-06
-4.38694781797129e-06
-1.5010434038219e-06
7.28374148223331e-07
8.0393827225317e-07
3.41541140738873e-07
1.25759468306701e-06
3.80966626981309e-07
-2.34348048401664e-06
-1.62915859967565e-07
3.81756809549897e-06
6.33696968887519e-06
5.82414460896626e-06
2.25857366811399e-06
1.49208252713774e-06
2.44541308164374e-06
3.80786611122536e-06
4.2518085157683e-06
4.28951633917807e-06
9.91121797519259e-07
-5.20441502407718e-06
-7.41442530276989e-06
-7.14559018246287e-06
-2.57407015430164e-06
1.86238590139255e-06
1.49851937251939e-06
-1.32260484333956e-07
1.35302143113247e-07
-4.69646367383135e-07
-2.38105985706341e-06
-4.11930284280272e-06
-7.99352581453905e-06
-8.96079330201511e-06
-7.81100659429962e-06
-4.52077940554902e-06
9.5895470089139e-07
8.21223166621781e-06
1.56327941853842e-05
1.51913142676274e-05
6.0807541894723e-06
-2.45320396142404e-06
-4.01641154346942e-06
-2.70749662345858e-06
-8.53745553604563e-07
-1.46800528308516e-06
-5.17291901057236e-07
2.96186683814213e-06
1.3078107152858e-06
-1.6134493393005e-06
-2.53597648734198e-06
-1.0944625554091e-06
2.72697395437722e-06
5.58776036984545e-06
5.51463317313683e-06
1.05995859099308e-06
-3.61935073055354e-06
-6.45168814048658e-06
-7.71852943379453e-06
-8.32673326901962e-06
-6.15834838729047e-06
9.4375970409034e-07
3.70456466894841e-06
2.35568803930541e-06
-2.01027014817347e-06
-4.06940819047252e-06
-4.75643964507719e-07
3.68667386983434e-06
6.64882211066775e-06
3.90308377652341e-06
-1.31169200788836e-06
-4.15723244030147e-06
-3.02915405703572e-06
-3.21362673538185e-06
-1.38707133010771e-06
3.73583789494708e-06
7.13268233368309e-06
9.50744966041228e-06
9.30836217015081e-06
6.70768160736967e-06
2.89640498623304e-06
7.25241596273461e-07
-3.38284501682348e-06
-5.82089284102026e-06
-5.20505798783284e-06
-4.93028559748125e-06
-2.63811331229082e-06
-1.34700779969511e-06
-3.76049075031137e-06
-6.27037368775876e-06
-4.99771564280398e-06
-5.20449724990536e-07
4.48324390828419e-06
1.85061486614163e-06
-1.99582189716873e-06
4.58757414667746e-06
1.05783326420797e-05
7.28519169910383e-06
7.32099915161715e-07
-7.42604778357546e-06
-1.33527813572396e-05
-1.08793922432204e-05
-2.38883505524768e-06
5.02339240209924e-06
8.5988090660192e-06
9.74340609296612e-06
5.83613318761156e-06
1.41064573205055e-06
-2.36801229545869e-06
-6.92839843893906e-06
-1.03219666917742e-05
-9.9974836866526e-06
-3.00084593382576e-06
2.30030587654696e-06
5.71805627915542e-06
9.79340326894058e-06
9.54016082453594e-06
8.36561878315854e-06
9.35457638848427e-06
1.04064698960512e-05
9.09173365182278e-06
4.44366389369466e-06
-1.59649101936044e-06
-9.14656835526311e-06
-1.42458677276632e-05
-1.40401798076543e-05
-1.2451564927227e-05
-9.63205080148479e-06
-6.99591239510834e-06
-3.26701499725561e-06
-5.85556540129944e-07
-3.99650704647701e-06
-6.14599148319647e-06
-1.66475777867301e-06
2.18161394626306e-06
3.91466003059168e-06
5.55979808688723e-06
3.51373798244175e-06
6.12302781208359e-06
1.1009237797359e-05
4.69294887947923e-06
-4.359800880563e-06
-4.09713327005603e-06
1.59106280972677e-06
5.71938211085151e-06
8.69407078018942e-06
8.76966279045524e-06
8.48713466756597e-06
8.76793341086843e-06
1.41181426632967e-07
-7.17487888597982e-06
-6.66229271884906e-06
-5.07553569647126e-06
-1.48636279997369e-06
-4.47388114969467e-07
-3.92427110582626e-06
-7.6897190021563e-06
-8.76082720657302e-06
-7.45566439798906e-06
-1.96097731955714e-06
1.56053631561861e-06
2.5032453903594e-06
4.52880298628157e-06
1.10131064619702e-06
-2.93548071567736e-06
-2.9525100225308e-06
-8.47341885305613e-07
1.08910241977844e-06
4.26108228159039e-06
8.18008495026965e-06
7.91650862904316e-06
5.02651556062964e-06
4.19645366845554e-06
2.46077198312522e-06
-2.46429234410969e-06
-6.11463619216621e-06
-9.92394767759627e-06
-1.30886974393426e-05
-8.0777764143465e-06
-1.52219898218069e-06
1.21677051664961e-06
3.91146473736098e-06
4.12893745871011e-06
5.65165068299549e-06
6.138614533475e-06
4.58346475104632e-06
1.64689791883694e-07
-3.80926694832277e-06
-2.49807951256012e-06
-8.55650458111802e-07
4.89804856074738e-06
1.03035528607074e-05
1.23816266328833e-05
1.07202917366081e-05
3.48981758357716e-06
-7.35148440774868e-06
-1.30604548850461e-05
-8.06672290568253e-06
-6.83459798040264e-06
-8.63011436340362e-06
-7.90348344865194e-06
-1.05978908819689e-05
-9.41696851159679e-06
-5.0857570621177e-07
1.01104797304226e-05
1.73735509268711e-05
1.68487196505047e-05
8.63139038263845e-06
7.05170884405547e-08
-6.74051329971811e-06
-1.04735598900154e-05
-5.53956250718362e-06
-1.08662174361312e-06
-9.09358381589744e-07
-1.44661694824643e-06
-1.16280721285345e-06
-2.84202799660417e-06
-4.54362547301853e-06
1.1631937715247e-06
5.41757421839476e-06
3.48592652085999e-06
-3.12443814033051e-06
-5.2200778535047e-06
-2.49903921381226e-06
4.96909651375966e-08
7.32915724743956e-06
8.31229442962216e-06
4.69595563196414e-06
3.17220862656748e-06
2.22852172429001e-06
3.33318498666412e-06
2.19661425680632e-06
2.69183034343034e-06
4.21964586141067e-06
3.58513131700228e-06
9.74757563614939e-07
-4.42679544827633e-06
-5.13218896437844e-06
-4.29501983934647e-06
-5.88771243405186e-06
-3.41235061173013e-06
-2.42899842980974e-06
-5.12216250330897e-06
-5.5520800122296e-06
-3.56014794916271e-06
-1.8446836733573e-06
1.47976571291973e-06
6.19965392608532e-06
3.75550142024587e-06
-2.17431278372549e-06
-3.19130129315293e-06
-2.4608782339268e-06
-2.49348143392987e-06
-1.0928400785101e-06
2.27348374386023e-07
1.68254321996438e-06
1.80714269837601e-06
-7.02427105963011e-08
-1.91867168281794e-06
-1.70186325136295e-06
1.01667142064763e-06
8.84755424282048e-07
9.50406441919654e-07
2.78074498143068e-06
4.59223698433657e-06
6.83979770096791e-06
8.25489541583352e-06
8.986224760108e-06
7.9766729649723e-06
1.8677533811233e-06
-5.08690492305552e-06
-6.42426563240223e-06
-8.49800660613122e-06
-9.30741491944836e-06
-5.17257581589835e-06
-3.51426178261482e-07
5.34711102621147e-06
6.16062039221791e-06
3.74147065924351e-07
-2.97770587509015e-06
-1.02060023287364e-06
1.68483575293041e-06
3.09063735868037e-06
1.98209677329518e-06
-1.05561479850809e-08
-2.18646753046992e-06
-5.63840987123783e-06
-7.23116251853621e-06
-5.07071866592035e-06
5.23765086330839e-07
3.13486199875998e-06
1.54305956505655e-06
5.95099162611464e-07
-4.84775907588816e-07
1.87678003523938e-06
6.69542220690621e-06
8.60806335463698e-06
3.73689284348413e-06
-3.00362126021606e-06
-3.39575521983673e-06
-2.5917273854767e-06
-8.17636867932165e-07
-2.144774691071e-06
-3.27484120585663e-06
-8.36189512032911e-07
-1.75430852703109e-06
-3.22121813912185e-06
-3.53280485719797e-06
-6.9459387480393e-07
1.64190100901356e-06
3.31233959880544e-06
1.28627250137088e-06
-2.67652863334025e-06
-2.36245516310015e-06
-1.38123697228491e-06
1.73977438213211e-06
5.70804317208831e-06
6.756689847098e-06
2.61869873107546e-06
-7.9021640648426e-07
-2.52596323909874e-06
-8.25132565557959e-06
-1.55615092013492e-05
-1.60101806288489e-05
-9.01718642175057e-06
-1.23423670619642e-06
6.20952748049291e-06
1.18480222605595e-05
1.95183972198688e-05
2.66453714618259e-05
2.14459985277066e-05
8.9510172155167e-06
2.60182540752585e-06
1.03076795690271e-07
-5.45314573722129e-06
-1.01816191927872e-05
-1.20563831240774e-05
-1.16039307522909e-05
-6.98776529036327e-06
-2.61665045271934e-06
2.91766906103297e-07
-1.70626506076946e-06
-7.29101918737397e-06
-6.34601980286031e-06
-2.94460845433467e-06
-2.78630573861088e-07
1.81313511878374e-06
1.14204747198932e-06
-1.29389174815627e-06
-1.999418685703e-06
-4.56990646347856e-07
1.1389295476712e-06
2.72059714038263e-06
1.69860958987295e-06
1.16488209492002e-06
1.33815420127152e-06
-9.04464183366479e-07
1.27349115296529e-06
6.74857326351749e-06
9.49911324277968e-06
9.57521881604251e-06
7.21569491541565e-06
2.19424617439177e-06
-3.85081664701495e-06
-7.19538985587552e-06
-4.8345133375447e-06
-1.65061105319973e-07
1.37643559437506e-07
-3.66396202727259e-06
-9.43769836207857e-06
-1.31786588147886e-05
-1.1252657630979e-05
-4.61609387604109e-06
5.13971563904008e-06
1.46436495676213e-05
2.1657641983708e-05
2.3667651256113e-05
1.47306803918491e-05
3.10844500338778e-06
-1.43165856504582e-06
-7.10154972198501e-06
-1.24881375906848e-05
-1.13155039289503e-05
-8.98095169621991e-06
-8.23857334253704e-06
-6.79723235763176e-06
-7.48244238104812e-06
-8.58276710070047e-06
-4.95071794512543e-06
-2.84862205797369e-06
-2.89088645464699e-06
4.78141675528398e-07
3.3039711559308e-06
1.00814823129089e-06
-1.93096001259586e-06
-1.87773085589511e-06
4.02075039395697e-08
1.53900546791669e-06
-6.09328970546129e-07
-1.45129093807617e-06
1.37659633274918e-06
6.18054567564615e-06
1.24664450043565e-05
1.37707444182713e-05
1.18804125951093e-05
8.50482491610112e-06
2.68943939633703e-06
4.19994879540642e-07
1.25099422643592e-06
4.26605277305138e-07
-3.0740672203111e-06
-8.30410627675178e-06
-1.28572645676132e-05
-1.28328342636214e-05
-8.57783213120391e-06
-5.30484166428583e-06
-1.98446361137423e-06
5.19071162331349e-06
1.3789761828159e-05
1.99781610469024e-05
1.65202941262223e-05
8.6046101004585e-06
6.14092045818747e-06
2.95243914673635e-06
-1.64632021013464e-06
-2.59232857726703e-06
-3.74502115763156e-06
-6.16297746634626e-06
-8.06685327996873e-06
-1.12038044874665e-05
-1.17262368755502e-05
-1.06277192097123e-05
-7.90101279259409e-06
-4.03811950600279e-06
-3.04754976567377e-06
-1.5781667144028e-06
1.98618778101748e-06
5.06872934764811e-06
5.55760157666426e-06
3.24561492876771e-06
-1.5312946518126e-06
-3.38774551904293e-06
-2.34786553613433e-06
-1.33599027527118e-06
-9.93422839566338e-07
-1.47129395075958e-06
-1.04816557395021e-06
-7.50661142695887e-07
-1.22236532316367e-06
-2.02690907829176e-06
-8.47015669552319e-07
3.45954671038703e-06
9.01681924923483e-06
1.07401721384801e-05
8.84005631027557e-06
6.57909057630426e-06
2.90520906751057e-06
-1.25047292205245e-06
-3.68970918469519e-06
-2.56795987780964e-06
-4.42524535725642e-07
1.4572033855831e-06
1.74519544414119e-06
-4.74335608578692e-07
8.41394467004841e-08
5.07208405465297e-07
-3.38993051547507e-06
-6.17751778307918e-06
-4.60519001439593e-06
-1.6196842818335e-06
1.84470965738124e-06
4.03048436181895e-06
5.27792579031467e-06
8.00988753813939e-06
7.36507937959421e-06
1.53572141065898e-06
-3.3620555440149e-06
-5.07514006090747e-06
-5.01172275519095e-06
-4.41719929618389e-06
-6.64750294943667e-06
-9.91534098315762e-06
-1.20412422357889e-05
-9.66445774644136e-06
-3.23623560385869e-06
1.30834933458027e-06
5.7529343606345e-06
1.20634435183057e-05
1.98057127046519e-05
2.03541419652947e-05
1.04955683535725e-05
2.7920347087122e-06
-5.29221358328468e-07
-6.06659105400186e-06
-1.13074853825261e-05
-1.44770209315364e-05
-1.68090372972733e-05
-1.49113917477529e-05
-9.46639066168802e-06
-1.31794513025763e-06
9.97429802242161e-06
1.67752844023588e-05
1.7276631332068e-05
1.69334543517064e-05
1.05109651530475e-05
-1.00080071211333e-07
-5.97020502058791e-06
-7.30125158835131e-06
-6.29190318933251e-06
-5.72914253186153e-06
-4.95502431439629e-06
-4.45865354915357e-06
-2.83308003467073e-06
-1.61882857128026e-06
-2.77439745090445e-06
-3.10592475530975e-06
-4.26704243491323e-06
-4.41386480587924e-06
-2.80776814654567e-06
-6.33778492440226e-07
1.54954853638997e-06
2.89816041475607e-06
4.66556573673558e-06
6.35257437600468e-06
5.00852601809765e-06
3.03422626134267e-06
2.53423083107171e-06
7.0402058910856e-07
-8.14976873074493e-07
-2.07890333243448e-06
-2.42478649616093e-06
-1.71160683770086e-06
-1.55592540395246e-06
-1.64459982314149e-06
-2.03345336921287e-06
-2.49827933646107e-06
-2.31495078974345e-06
5.89012668363634e-07
4.71632768475406e-06
8.68789311353469e-06
1.10277870231973e-05
7.59821135575506e-06
2.52356298175918e-06
1.33194814838809e-06
-8.05278489719159e-08
-2.24785911177243e-06
-2.32555910874525e-06
2.78838637625738e-07
4.25541064213222e-06
4.91840644011642e-06
8.94342766601063e-07
-2.95259221032215e-06
-4.37744617397595e-06
-7.36519356723548e-06
-8.23756885139961e-06
-6.27469270302728e-06
-5.31834164893479e-06
-5.74341628659767e-06
-7.85981631027086e-06
-7.92851274329758e-06
-5.58219692535403e-06
-2.44075460584755e-07
5.73265673430128e-06
8.68263394241036e-06
1.25692782224899e-05
1.45602293240732e-05
7.15880567498347e-06
-6.85299370974091e-07
-1.2924053033783e-06
-1.30583908874196e-06
-1.54116050561297e-06
-3.08384815930387e-06
-4.4383492792964e-06
-3.29948960835623e-06
-2.32022373936204e-06
-1.27754718120262e-06
-1.62691070179477e-07
-1.20214271935152e-07
-3.06303161556782e-06
-3.8753982970416e-06
-2.06131906461723e-06
-9.28890403507634e-07
3.24176198187334e-06
7.32043817138037e-06
7.26007742504241e-06
5.72915299327644e-06
2.82205521675715e-06
-1.16060817199278e-06
-3.19980942347083e-06
-3.74054695792029e-06
-3.01017801155174e-06
-2.4566318227743e-06
-2.27442689648139e-06
-6.73710709348825e-07
8.87839254486833e-07
1.621316509571e-06
1.47816267745086e-06
1.52419664963862e-07
-1.4920777536484e-06
-7.35575464759262e-07
-1.15494275652071e-07
-1.36123180976826e-06
-1.42931017873791e-06
-1.61214220486292e-06
-1.91911414926259e-06
-1.07083633818525e-06
1.5379363796815e-06
3.86182010878692e-06
4.01281489294035e-06
3.99196506173191e-06
4.30763708459644e-06
3.03870287989363e-06
-1.1642948860077e-06
-3.35639688108061e-06
-3.3467563598265e-06
-2.22887999833282e-06
1.58116334397624e-06
3.11306247807868e-06
3.9651282142853e-06
5.5914971752433e-06
2.65239322649841e-06
-9.14310221664785e-07
-1.80463455707687e-06
-2.80793082178182e-06
-3.58021007861846e-06
-3.90516485831386e-06
-4.22930719840877e-06
-4.76952389831366e-06
-4.29481108170813e-06
-2.95857570993572e-06
-9.0029041441288e-07
7.86230456965151e-07
4.04564954358464e-06
7.4145902251826e-06
6.02152920342422e-06
4.14630684470359e-06
1.40725677239497e-06
-5.45624626306092e-07
-3.59036101115356e-06
-9.62657669380151e-06
-8.31549699477394e-06
-3.28943280982855e-06
2.92859789714308e-08
4.50200034148268e-06
7.47911157593114e-06
1.04513294064918e-05
1.03566000244653e-05
2.43126466468526e-06
-4.34092960520529e-06
-5.9499653086976e-06
-6.47215016088033e-06
-6.04371677291211e-06
-4.23572550723821e-06
-1.55786648870778e-06
8.66283376003771e-07
1.80787714849989e-06
9.99539501267106e-07
-1.34644831073357e-06
-3.01548336268415e-06
-3.01467357447601e-06
-2.35928998410117e-06
-1.57631013249615e-06
-7.44715025183869e-07
6.57411988318604e-07
3.18030803019458e-06
2.90662799220085e-06
3.06617723029242e-08
9.91416767511043e-07
4.01692685786712e-06
4.39021717341674e-06
3.18418299573535e-06
2.42192284485269e-06
1.52198338623889e-06
1.63592239751501e-06
1.56157499119826e-06
5.19863499327836e-07
8.27170988635761e-08
2.15756743957388e-07
6.68082521905783e-07
3.57892423802407e-08
-8.82820002850288e-07
-1.10070995065312e-06
-1.6298495596369e-06
-3.59019805743958e-06
-4.70761116331002e-06
-4.94010095138033e-06
-4.89941847717277e-06
-3.63661183021861e-06
-2.99215914912581e-06
-1.62443600571943e-06
7.13682791690696e-07
2.61018809667833e-06
4.20511899362283e-06
4.95065909149561e-06
4.65045786962067e-06
6.50086067374289e-06
8.22724378076743e-06
6.1381465270654e-06
4.33326501146024e-06
2.09528599655229e-06
1.32964021643675e-07
-1.38250765386846e-06
-6.51490845066633e-06
-1.27334999582145e-05
-1.46236155385187e-05
-1.25771163390119e-05
-9.02457651160109e-06
-2.63238843746963e-06
5.21640855707423e-06
1.45029550996945e-05
2.13326988586865e-05
1.82168652852773e-05
9.85916290889204e-06
3.28847736920821e-06
-7.63308582139361e-07
-5.17504140631603e-06
-8.52724061775606e-06
-9.25748030125764e-06
-1.04841075018819e-05
-9.58384753766983e-06
-7.38844148164393e-06
-4.24492910184996e-06
-1.11177714946075e-06
-1.39573569154259e-07
3.91235512380067e-07
-4.42479186389899e-07
-9.81755416516368e-07
-9.83100599947606e-07
1.95703381329445e-07
1.31628054947034e-06
1.08308221481766e-06
1.5421530414215e-06
2.90334741368135e-06
2.67387932320598e-06
9.67267992710207e-07
6.06107320706668e-07
3.30368154967691e-07
-9.79986377799304e-07
-2.71038649222517e-06
-2.63832262355488e-06
-3.45790756211541e-07
3.58597515164043e-06
6.55534206177077e-06
4.39816776748683e-06
-1.93891222199601e-06
-5.78586297970911e-06
-4.09638453805666e-06
1.48884164562385e-06
7.80282278746413e-06
9.55198045228462e-06
1.15157418084654e-05
1.56145729326059e-05
1.32142243227657e-05
4.25914557980904e-06
-1.2904876409062e-06
-1.51940544153697e-06
-2.94769332880385e-06
-6.34201182077552e-06
-9.04388371597432e-06
-9.21944562809242e-06
-8.37260433083868e-06
-7.76887396477503e-06
-6.6379077738546e-06
-5.29757662426849e-06
-4.79686247143819e-06
-4.48800394014295e-06
-3.79086110872472e-06
-3.76479098021069e-06
-4.12480229772353e-06
-4.05649361185983e-06
-2.81094055260342e-06
-3.26104545996423e-07
2.52850990016452e-06
4.55934582552898e-06
6.76406772992083e-06
8.26486638982999e-06
6.18504377900659e-06
2.84085763992375e-06
4.0453311709385e-07
-1.89181089137858e-06
-2.89659597083853e-06
-1.33297804111058e-06
2.03754914371367e-08
-1.5416138969419e-06
-1.43583016066791e-06
2.05069280334565e-06
5.32188019404327e-06
7.41871545473273e-06
6.1915596499498e-06
5.75803463583402e-06
7.60657155615221e-06
6.58204169296005e-06
2.9858685586823e-06
-5.49829747183107e-07
-1.90308589301404e-06
-3.00960323509642e-06
-3.38500341288305e-06
-4.21375123575504e-06
-5.81422094609599e-06
-6.14711503728352e-06
-6.40778652206793e-06
-4.86632287292645e-06
-1.68613421488373e-06
8.83647047939809e-07
-1.80916578052478e-06
-3.86487993816804e-06
1.308254409398e-06
5.41962080687203e-06
6.47125093057826e-06
4.28424842333704e-06
3.25345241976734e-07
-1.66297183015734e-06
-3.59866434491112e-06
-2.9082646340706e-06
-7.65367939990955e-07
1.66561315562618e-06
4.75661048901284e-06
1.88687537945682e-06
-4.3163409509569e-06
-5.78929443892026e-06
-3.65124962732402e-06
-2.11743731912484e-06
-7.77854323124389e-07
1.61828374054221e-06
3.21858425429759e-06
2.44496606836528e-06
7.41919485944625e-07
-9.80953899717743e-07
-2.45140331514623e-06
-2.4620695224525e-06
-2.2697276630024e-06
-2.07861316758136e-06
2.01696263444122e-07
2.78037902031115e-06
3.21267600103114e-06
2.65226670374627e-06
1.79589161544814e-06
3.46046384195633e-07
-1.9093531693152e-06
-4.38162255818463e-06
-5.66447968437945e-06
-4.48858841525681e-06
-1.20601616608115e-07
4.30553688049486e-06
7.49539367445913e-06
1.07531061636206e-05
8.53654721921642e-06
2.6621606718274e-06
-5.17258278293151e-07
-4.48469892197521e-06
-6.15512438330957e-06
-2.85923580792768e-06
1.34952132221361e-06
5.1661067563848e-06
6.95931108647215e-06
5.68784306275641e-06
4.32525088495035e-06
5.64899508822145e-06
5.10109975056238e-06
3.21425303184948e-06
1.080575168794e-09
-5.59318312945573e-06
-7.88842352041256e-06
-6.71810326825307e-06
-6.10382336198562e-06
-7.91699879500773e-06
-9.97591510363688e-06
-1.0871803432543e-05
-7.30965115508634e-06
-1.84732009835118e-06
7.09895469894088e-07
2.16396916329549e-06
4.39572829865229e-06
7.11297209101831e-06
6.04512204506783e-06
1.80803482538249e-07
-4.5604194694458e-06
-3.86453771801593e-06
-2.77213535495753e-06
-4.10766071093119e-06
-7.12850672339108e-06
-7.26751005581663e-06
-4.45603862794623e-06
-1.16090428707055e-06
5.93485904756957e-06
1.09389368898217e-05
1.56343591722233e-05
1.96681860091582e-05
1.55935279160818e-05
9.22202717614504e-06
4.49712565935312e-06
-1.33522620417236e-06
-5.30719595421766e-06
-6.7218632638993e-06
-8.12180180827446e-06
-6.66183091763201e-06
-5.37296588639347e-06
-4.9364464996308e-06
-4.34803845520494e-06
-3.26183311579753e-06
-7.30045484536251e-07
4.43657484906231e-07
1.28991187814957e-06
1.05834305726411e-06
-1.05341136591974e-06
-4.81856728087914e-06
-8.14006334412655e-06
-8.37957069960355e-06
-7.05645821711007e-06
-3.48298786078381e-06
2.0767147942693e-06
6.76452707493824e-06
1.01388420617662e-05
1.35899865851547e-05
1.54293245508745e-05
1.32723861883825e-05
9.58283998242135e-06
6.73565929742783e-06
5.37605709879287e-06
3.43981849427842e-06
-7.14956374613618e-07
-4.3648883494963e-06
-7.01404830477841e-06
-9.61666608035522e-06
-1.20049489373968e-05
-1.36142648221635e-05
-1.24565111342373e-05
-9.23665974390343e-06
-5.63677427666925e-06
-1.5832609398541e-06
1.42635889155798e-06
2.73513512937683e-06
-4.43681507386457e-07
-5.97813984937895e-06
-7.20275262196261e-06
-4.79056309174238e-06
1.40022119793695e-06
7.15732275905093e-06
9.65418638421074e-06
1.15292808203127e-05
9.93587321382742e-06
5.40885447862862e-06
2.32334198089262e-06
1.51964210304714e-06
1.78945644130704e-06
4.57606989089234e-06
7.00461773044675e-06
5.1846056750235e-06
8.11510703832436e-07
-2.47123515238781e-06
-4.19881369559279e-06
-7.80958293194607e-06
-1.32832692683322e-05
-1.57982412258458e-05
-1.28562845189533e-05
-8.42879122942859e-06
-3.2324050904809e-06
4.00950665156641e-06
1.23067738916476e-05
1.53062047505748e-05
9.95663520816402e-06
4.73486430874116e-06
3.84524322541974e-06
4.45546008854037e-06
2.85792510818744e-06
1.31339462522936e-07
1.99532536305665e-07
2.69196484096255e-06
5.6374827018118e-06
3.71530164075201e-06
-1.26943075973804e-06
-2.03785180143164e-06
-2.68023360588732e-06
-4.44607551249204e-06
-6.10700887016428e-06
-7.34621503578853e-06
-7.21095244458822e-06
-7.75596412421915e-06
-7.09806200936136e-06
-4.51728229184939e-06
-1.96613771846269e-06
-1.04185870543413e-06
-5.12069721476837e-07
1.25019811438134e-06
2.79569206377445e-06
2.15782189179995e-06
1.15349091220188e-06
2.15937615761247e-06
3.56991070194594e-06
3.77005666699043e-06
1.13200135484837e-06
5.58433858576248e-08
2.37753240709156e-06
5.0104805037168e-06
6.16155249859937e-06
3.70214044097674e-06
2.18603097998263e-06
1.47841969510406e-06
-9.53657879659223e-07
-5.13983301316621e-06
-6.25400503921345e-06
-3.52428873764756e-06
-3.76745282639753e-06
-5.63613808897587e-07
3.78403400486577e-06
3.66307129923495e-06
3.71281444204624e-07
-2.65284423347046e-06
-2.39765371254796e-07
2.77289988530351e-06
2.82954597373804e-06
1.8942106760475e-06
4.03033501129038e-06
1.87137097550831e-06
-5.81449912031006e-06
-9.74700685947197e-06
-1.16999109456079e-05
-1.00054555910547e-05
-4.1350069518936e-06
2.85591321388077e-06
1.08180397296516e-05
1.40573460394068e-05
1.07583393656432e-05
8.50417135371397e-06
6.5062525604621e-06
3.78153579201286e-06
1.74820268614341e-06
-3.05650780716834e-06
-7.2613012575714e-06
-9.12258598584336e-06
-8.82189139828141e-06
-7.39367866494166e-06
-5.94223527058488e-06
-3.90818090638012e-06
-3.46436809077484e-06
-2.89434797864187e-06
-3.68904226353222e-06
-3.98863200067964e-06
-8.73751330502232e-07
3.13975208317561e-06
6.75283279056255e-06
8.89025321572958e-06
1.2936461409931e-05
1.49997147927514e-05
1.07127666011116e-05
2.57566240999659e-06
-4.95724598555422e-06
-8.52814659083543e-06
-9.7514825058708e-06
-7.86126822677638e-06
-4.26382917106306e-06
-5.79832206841033e-07
2.75322909915197e-06
3.53858696632753e-06
1.949854277654e-06
4.8912085710052e-07
-1.16659478110724e-06
-2.45311895005253e-06
-4.10291167400775e-06
-6.03805613279427e-06
-5.16369955722968e-06
-1.23819135368938e-06
4.85133318988209e-06
7.15348299785517e-06
5.05578593973485e-06
2.14729450552769e-06
2.17461628699808e-06
2.74019351935048e-06
-7.78655729831225e-08
-4.08116433759557e-06
-8.19089737591165e-06
-8.604003474437e-06
-5.01883614519047e-06
1.36630192074337e-06
6.00564847784793e-06
9.40456904235928e-06
1.29629536249622e-05
1.28655039990783e-05
9.67654918519029e-06
2.38602147956441e-06
-5.52824928077298e-06
-9.84188394605428e-06
-8.18069985044468e-06
-4.05846697697757e-06
-2.22476425510554e-06
-8.53317187774587e-07
9.03740422004061e-07
2.67016723307105e-06
1.99850038056618e-06
-3.13321390153023e-06
-8.58258241241056e-06
-7.82063971046543e-06
-4.71066330437008e-06
-4.02357346031277e-06
-4.39273567662246e-06
-3.27761294529776e-06
1.5443562020439e-06
3.89130019394458e-06
1.759784554502e-06
2.54027023771943e-06
4.68407833654623e-06
6.06966951563934e-06
6.66787937551801e-06
3.64445237479005e-06
3.05981908405919e-07
-8.40231791731397e-07
-1.29365189795187e-06
-2.23969167956704e-06
-2.68181121134499e-06
-2.72122356714097e-06
-2.87352676066071e-06
-1.62153774543189e-06
1.23037015895401e-06
2.86491705165998e-06
1.23865644678943e-06
-9.01261875550114e-07
-1.90154983109617e-06
-2.15188427040228e-06
-1.29512377698395e-06
7.62912488791526e-07
3.54358506956525e-06
5.55440750534402e-06
6.10177116079835e-06
5.65775390457294e-06
4.36637070184628e-06
2.0403708596772e-06
-8.76904256664459e-07
-2.10381436166903e-06
-2.11678927314939e-06
-3.6137828508061e-06
-5.51902206977351e-06
-5.04527615630778e-06
-2.4344511096791e-06
-5.92659246015716e-07
1.42496983871496e-07
1.11809955086577e-06
7.36384282073449e-07
-1.54048599158167e-06
-3.08033218850405e-06
-1.64887766893594e-06
1.09657979687751e-06
2.87740285309771e-06
4.3936430865819e-06
3.85933063809057e-06
1.77959033115755e-06
-1.51021262355447e-06
-9.30235094048193e-06
-1.21072668734455e-05
-6.46569089474629e-06
-1.44596389801787e-06
4.76952323676501e-06
1.14653571800873e-05
1.93893810665862e-05
2.44860581981287e-05
1.44410927923456e-05
-1.27163255700752e-06
-8.8711141290946e-06
-9.57598945544266e-06
-9.39869140302337e-06
-1.04529579266369e-05
-8.90981138027463e-06
-5.58134993820459e-06
-3.5838893461346e-06
-2.41496392588695e-06
-6.75682561079547e-07
3.61603768232424e-06
4.07036387780364e-06
-6.04775148836443e-07
-3.71017533461561e-06
-4.8013332171637e-06
-3.73510463061577e-06
-1.69057553520703e-06
-6.48258755474727e-07
-1.0863110272137e-06
-1.03115206198955e-06
-8.56663315407419e-07
-2.0116672198507e-06
-3.54695199643459e-06
-3.37679190168218e-06
1.14108497642767e-06
5.90278757231407e-06
9.75389954940182e-06
1.45961188401138e-05
1.65146763944692e-05
1.26437529542521e-05
5.22889601578597e-06
-6.27013041651572e-07
-3.46246946650745e-06
-5.32712710868384e-06
-6.47390757291566e-06
-7.13486704529735e-06
-6.3243103091205e-06
-3.93647308038136e-06
-1.97522487686219e-06
2.71071401000155e-07
1.33540359347325e-06
7.6491032947079e-07
4.3538660311257e-08
-3.75837893262032e-07
-1.59953987440204e-06
-2.71048623794407e-06
-2.20139280320815e-06
-2.26831273513822e-06
-2.84382167190247e-06
-3.63215551387134e-06
-3.5654648224872e-06
-2.0857987939605e-06
5.12142960346686e-07
2.61717505130376e-06
3.0872797286448e-06
4.70326551828044e-06
5.23356285993926e-06
2.08985022925387e-06
2.78298431852677e-06
6.09635379478096e-06
4.18011855163134e-06
1.30675607196142e-06
1.24895329222168e-06
1.51753090098208e-06
1.08126815929471e-06
-2.44253376075567e-07
-3.03893109840203e-06
-3.64155798408059e-06
-3.06449393865281e-06
-4.13954702113162e-06
-5.14789437188587e-06
-4.86136327552983e-06
-3.06415027563179e-06
-1.07187795121834e-06
-1.03044678839298e-07
5.96901519806325e-07
2.33661447794744e-06
2.36944618169141e-06
1.52088238102915e-06
1.62534767913311e-06
1.14845313535099e-06
2.07997194001786e-07
-7.5284866007293e-07
-9.99527097078069e-07
-4.41954429394413e-07
-1.54381309547894e-08
-1.54285499791269e-08
8.26122020911597e-08
1.17709510098702e-06
1.76752261775456e-06
-3.03104429924121e-08
-1.49991328154523e-06
-1.39210257292547e-06
-1.60154537124862e-06
-9.56911386575852e-07
2.39468164444721e-07
-2.67390929120522e-07
4.22714391515367e-07
2.02958663937728e-06
2.66714487444707e-06
2.20738591261572e-06
5.03729711583592e-07
-6.35231014571556e-07
-1.74256313540515e-06
-2.54070599238078e-06
-1.98283254690803e-06
-2.01711561196031e-07
1.17046733185742e-06
2.54222241465006e-06
3.65697657750139e-06
3.24772246500974e-06
3.12646943844389e-06
2.70752529880458e-06
4.77401850129455e-07
-1.52591631322356e-06
-1.35596046096073e-06
-9.84359769669146e-07
-1.03212192509592e-06
-1.63289195242372e-06
-1.75830608626299e-06
-1.80914253725118e-06
-2.56551247455196e-06
-2.59724312284274e-06
-1.18424837565577e-06
1.57818966697881e-06
2.60321126578107e-06
2.99148299602453e-06
3.20404817760199e-06
1.21522692657202e-06
-1.97312886913337e-06
-3.27052488406167e-06
-2.87164108378706e-06
-2.84973797427124e-06
-2.06729799345643e-06
-1.14125991922868e-06
-4.74570534422406e-07
-7.95677700743201e-07
-1.80795307223818e-06
-1.91522724968127e-06
4.27019239189333e-08
2.19168844037861e-06
1.34462270354932e-06
1.31371814936652e-06
2.85610745855652e-06
3.12196618489549e-06
4.0080004641484e-06
3.27721909849125e-06
7.02998874969769e-07
-5.72026453350621e-07
-2.92367609803489e-06
-5.71508908449355e-06
-5.6162062516851e-06
-3.01248387218272e-06
2.53033198996912e-07
2.61472886975411e-06
3.78629271258549e-06
5.8763914983293e-06
7.11640443364504e-06
4.68670536417776e-06
1.33503443225719e-06
8.10944029511894e-07
2.64507179591377e-07
-1.12662438531657e-06
-2.00607917663768e-06
-4.15991039869234e-06
-3.80574211765717e-06
-1.88120898614996e-06
-9.10670158185252e-07
-1.14282185271265e-06
-2.0231665548035e-06
-1.51918682651534e-06
-1.6176336743813e-06
-2.07174198828604e-06
-1.41799307479793e-06
4.53733966179331e-08
1.55182007787096e-06
1.48870578089869e-06
-8.24871797641493e-08
-1.62458743717338e-06
-2.60467624458349e-06
-1.78988235485409e-06
2.80165549005795e-07
1.68172764574635e-06
3.49102342769028e-06
5.49959727182623e-06
5.0489567276528e-06
3.52795240580284e-06
1.7595263699724e-06
-3.3072176597178e-07
-9.39534293454974e-07
-1.25197906602163e-06
-1.99437394477982e-06
-2.23504014935956e-06
-1.605593270241e-06
-1.33065335100206e-06
-1.19550695964391e-06
-7.30636579822664e-07
-6.51907073881331e-07
-8.78250434533004e-07
-1.27453163757006e-06
-1.22871348213412e-06
-1.41530408774377e-06
-1.85329275496713e-06
-1.57688006286131e-06
-9.00975100725747e-07
1.95980840459576e-07
1.586453542948e-06
1.83852973491466e-06
1.40854951523817e-06
1.02559753211503e-06
7.02319821713373e-07
3.58024829032423e-07
-4.08398154474114e-07
-6.73768053078719e-08
8.18087386226419e-07
9.33250344874736e-07
1.3498663932273e-06
2.45597370557002e-06
2.80236633535932e-06
1.35032267758108e-06
-4.58437239974432e-07
-6.28751932380749e-07
-2.40292135255552e-08
-4.63638859830247e-07
-9.7127744815094e-07
-1.32386881377286e-06
-1.1894952794565e-06
9.15311350447326e-07
2.16960944352129e-06
1.63296415447605e-06
2.13030339428724e-06
2.77215826010985e-06
2.32151997461691e-06
1.44082931276038e-07
-2.44647215235086e-06
-3.20674073391106e-06
-3.31773812352396e-06
-3.26177596961588e-06
-1.91836352943072e-06
3.68722046933174e-07
1.29120005070419e-06
8.69637606797776e-07
4.79386788745368e-07
1.12074647369283e-06
2.6999823891438e-06
3.43128322379059e-06
2.2797608984628e-06
1.55789565546902e-06
1.61566982948721e-06
-1.14112849469689e-06
-4.01683556623541e-06
-6.58064038375522e-06
-8.80656028168406e-06
-7.77101684824268e-06
-5.88534202702739e-06
-3.67955420203811e-06
-9.93213814523247e-07
2.58034931302438e-06
6.44011999788459e-06
9.09602402950503e-06
9.13733812791426e-06
5.15781364979719e-06
1.64750548262593e-06
-4.07941777753987e-07
-1.69083608213191e-06
-2.01873364479994e-06
-2.65419118227192e-06
-2.32141084461448e-06
-1.76175106809339e-06
-1.46139820482892e-06
-2.01565486489386e-06
-2.03745108450532e-06
-1.38573640177509e-06
-3.26122486397618e-07
2.58408084695269e-06
3.49991687922312e-06
1.76613868418347e-06
3.91798319273941e-07
-1.71090126528198e-07
-4.13266405418818e-07
-1.12167919582789e-07
-2.61728483059634e-07
-8.35881928641376e-07
-8.45089495401027e-07
-7.77928365827232e-07
-2.51700993209714e-07
1.41667341381883e-07
-3.73324330698564e-08
2.59841821805508e-07
7.5999391937525e-07
1.08218610630513e-06
1.74282395537132e-06
2.18273563667176e-06
2.23742931697477e-06
1.89555270167263e-06
5.55342373344745e-07
-5.35024418929283e-07
-3.26873880063011e-07
-1.80581370063159e-08
-1.80919052375736e-07
-4.73393481688935e-07
-9.97163041910081e-07
-9.62562597446949e-07
-7.01859799349533e-07
-8.58281708107268e-07
-1.60021995252375e-06
-2.45079103988916e-06
-2.22422142777994e-06
-2.05859420792681e-06
-1.03781024771187e-06
-4.08245259216113e-08
3.10994525858007e-07
1.90351274747541e-06
2.41760841752116e-06
2.39417327664641e-06
2.22943898539951e-06
1.05074182502013e-06
1.09505083998417e-06
9.63333141707658e-07
-1.09389713106569e-06
-1.27127983971601e-06
1.60088626112497e-06
3.50859486001189e-06
4.20815936627233e-06
3.66354186374933e-06
8.13721023264585e-07
-2.59881593605679e-06
-5.20677755708962e-06
-3.92501610730329e-06
-6.40077125758852e-07
-5.82986045205395e-07
-2.28512172364678e-06
-3.35721695320556e-06
-3.89890835233909e-06
-4.52694693859515e-06
-3.25673828418168e-06
-8.74969504054371e-08
2.95989196205994e-06
5.74747792816327e-06
6.74984640220808e-06
7.94556536491316e-06
7.98127745651495e-06
3.1295344286893e-06
-2.27889122262724e-06
-5.05799274028277e-06
-5.75647763266717e-06
-5.80498252636657e-06
-5.19790978316337e-06
-3.07188609743124e-06
-1.70462833705331e-06
-1.35497620765244e-06
-4.83339056669012e-07
1.4376860969519e-07
1.1805051302297e-06
1.14052501436595e-06
-3.95197507424515e-07
1.03675427647303e-08
1.48319690309708e-06
1.67847307881452e-06
3.71157682598391e-07
-5.22501603528112e-07
-4.18230097170443e-07
4.56452686942682e-07
4.2847961487871e-07
-7.26903136588204e-07
-1.85722881310584e-08
1.43527184939097e-06
2.58374424960303e-06
3.81204089215955e-06
3.79922955188485e-06
1.38705784344704e-06
-8.8771930015003e-08
9.40349529836512e-07
4.44143427998876e-07
-5.83516840912678e-07
7.00402569429111e-07
1.44641832876297e-06
-1.15951213833839e-07
-1.76074392081031e-06
-2.32878714507997e-06
-2.01389407386593e-06
-2.0895589888544e-06
-3.67593032955456e-06
-5.37107301222473e-06
-4.13683695086671e-06
-9.40761921632466e-07
-4.11423627711608e-07
-1.77887106617935e-06
-1.39695217025389e-06
1.84104842594855e-07
2.9907196309507e-07
2.3079705757771e-07
1.10974325407399e-06
1.82928041578816e-06
2.89103935068175e-06
4.04476564302576e-06
3.92007191065409e-06
2.53611294118233e-06
2.51241886079819e-06
2.23115521660861e-06
2.25500565447623e-06
2.74155588091405e-06
3.76251848493109e-07
-2.25013879887091e-07
6.24381998446178e-07
1.29167678651292e-06
-9.56844148137431e-08
-3.4011238838283e-06
-4.37922000711478e-06
-3.81401316302333e-06
1.04005995726138e-07
4.89729221937533e-06
7.68701113686257e-06
7.48787229871738e-06
7.02719548848781e-06
6.14741118477676e-06
2.46979222461229e-06
5.73941443608587e-07
-3.00631447368101e-06
-7.29488766936978e-06
-9.26048615642394e-06
-9.8849200647493e-06
-7.96392230534535e-06
-6.14704865992796e-06
-5.088778175144e-06
-3.22469180669306e-06
-1.36403357986795e-06
3.21349885112205e-07
-6.08288708872723e-07
-5.19604506539323e-06
-6.97713059954481e-06
-5.44615489883888e-06
-3.75413613848655e-06
-2.28164965361476e-06
-8.00966474666193e-07
2.36859691631392e-06
6.38085768622639e-06
8.65354003517148e-06
9.22019848726774e-06
7.64453766653142e-06
3.88349751060083e-06
1.28389191164493e-06
-1.23099755358682e-06
-2.06729600391912e-06
-9.0238842333496e-08
9.92654110269467e-07
2.20557398841988e-06
2.89937000428638e-06
2.51808660946037e-06
2.42680945326291e-06
2.78634263443748e-06
2.85514018721538e-06
2.05285673731546e-06
1.72054177853294e-07
-1.73256997907055e-06
-2.73218447996344e-06
-3.85911985731336e-06
-1.95901039011007e-06
1.0708636372888e-06
1.72305837201986e-06
1.22478530556619e-06
1.66929325210559e-07
-2.68044547459959e-06
-6.13619513544999e-06
-2.53794636247225e-06
1.19194824065372e-06
2.61091604119158e-06
7.61608734068684e-06
1.05583259826658e-05
9.13088708990361e-06
3.05271630768129e-06
-2.69503497083314e-06
-6.23462203670353e-06
-8.43863011475941e-06
-8.22037141542369e-06
-6.74192495872797e-06
-3.79932722316242e-06
-5.20968890038886e-07
3.3162552659649e-06
3.15013434585614e-06
-2.97404902858078e-06
-8.62537958590431e-06
-9.76997625990873e-06
-6.43466654138379e-06
-2.41679457660681e-06
-2.88816107537407e-07
2.1269474033923e-06
5.60922239568152e-06
8.98938830292143e-06
1.02378302492309e-05
6.29994684852787e-06
3.11982884441188e-06
3.33900917441537e-06
1.73093359986537e-06
-4.55561352399349e-07
-1.47332958985903e-06
3.02988329029395e-07
1.30528267204389e-06
-1.49222516414261e-07
