bandpass_filtered_signal_ch1
0
1.89127282917365e-13
8.27042190962908e-13
2.20974014256782e-12
4.0878170951909e-12
5.50091280570193e-12
7.57848678072952e-12
1.02887227774063e-11
1.04190052396774e-11
8.80222762696638e-12
8.45799335318133e-12
9.35261897439848e-12
8.26417570059002e-12
5.78920137656926e-12
4.77381432378542e-12
-3.49210836627727e-12
-1.42554979794848e-11
-1.11196224005538e-11
-2.538732112181e-12
6.8774081749308e-12
2.02116450214449e-11
2.68526199162041e-11
2.11921629638489e-11
1.60300164806349e-11
2.01699692355391e-11
1.77882645703902e-11
8.56736196609396e-12
-7.46341144295657e-12
-2.71558056580389e-11
-2.87204180324171e-11
-3.89493647516808e-11
-6.88418227770659e-11
-9.07868074492076e-11
-6.82573677578108e-11
2.08177978913553e-11
7.41424485829692e-11
6.00717599240905e-11
8.66434019002394e-11
1.07795154876505e-10
9.11598512311134e-11
1.58037521581691e-11
-9.51476661508811e-11
-8.80510812646981e-11
-1.20937303433252e-10
-1.96834641031496e-10
-1.95550060806427e-10
-1.42844099829107e-10
-1.08215049046641e-11
8.1054123046933e-11
1.11554242872402e-10
7.89929930392497e-11
1.96090317919657e-11
3.12605294707935e-12
1.24608476291328e-10
3.03089787717342e-10
3.18219177793407e-10
2.95969805987918e-10
2.67896223645396e-10
2.17052654380794e-10
9.24562905884812e-11
-1.19003283934789e-10
-1.75979150950416e-10
-1.25788692685147e-10
-1.37915591876137e-10
-1.60170629096981e-10
-1.58499909371736e-10
-1.54981275665952e-10
-1.20296147580813e-10
-1.58637549741781e-10
-3.76022234631867e-10
-6.01693123968275e-10
-6.2443256407269e-10
-4.64376762701365e-10
-2.49601840763958e-10
6.9671083191698e-12
1.76789613595567e-10
1.88438706530763e-10
2.12293232954895e-10
2.70554984049184e-10
1.99292981761564e-10
2.09481816069267e-10
3.49925157591178e-10
1.47448008319039e-10
-6.0364693138267e-12
2.10945762431732e-10
4.6218200461611e-10
7.48957211941592e-10
1.14475766079923e-09
1.24900108813746e-09
5.54057819722578e-10
-3.32384371438569e-10
-7.2877757159191e-10
-7.78221040158555e-10
-7.58370376527471e-10
-3.70241442391021e-10
3.83466987524071e-11
-3.29323261653696e-10
-5.56988814020242e-10
-4.20022146213992e-10
-3.86968711580765e-10
-3.24097629483881e-10
-2.77392405939519e-10
-1.30786038660428e-10
-2.69124637268822e-12
-1.81349306190947e-10
-6.49577238223037e-10
-6.04285630484717e-10
-5.91168255103997e-11
2.01310556077063e-10
4.87032456587548e-10
6.58426610960723e-10
4.79169053799777e-10
5.38426206219328e-10
7.71236113488534e-10
6.18548875061836e-10
1.78726677762191e-10
-4.73253962377272e-11
6.51967963799342e-12
7.90519440070668e-11
1.25209001859145e-10
5.03747381728711e-10
9.39787077070796e-10
5.71660511769425e-10
1.75987819858018e-10
4.81511513074871e-10
3.68735082143656e-10
-3.00548777874817e-10
-7.41402909634751e-10
-9.34752985610189e-10
-8.34530309697908e-10
-5.83653302033715e-10
-7.18162507531991e-10
-9.67120376097578e-10
-1.11026652533772e-09
-1.12764053049352e-09
-9.71116019758725e-10
-9.35144709242234e-10
-2.11918780397808e-10
5.14737670567907e-10
2.97330388798601e-10
7.0382873198079e-10
7.3985920258013e-10
3.5535254736968e-10
1.40544878352941e-09
1.49004449774188e-09
9.30552637692417e-11
-5.17102398694496e-10
-6.05504877436074e-10
-4.44456523181975e-10
4.15226334778483e-10
9.25100459146972e-10
2.76680361078865e-10
-6.65228697501613e-11
1.13166541560708e-10
4.83216566397772e-10
9.64277710176276e-10
8.51338166753472e-10
1.25433768442643e-09
1.9322334940567e-09
2.00588691386486e-09
1.58198244053134e-09
7.74686638030892e-10
-1.16867967273231e-10
-9.39339001604729e-10
-1.24282022904957e-09
-1.37304775826789e-09
-1.45436376796879e-09
-1.72630407409403e-09
-2.20789227208382e-09
-2.43452056729612e-09
-2.44969377258257e-09
-2.33714076712859e-09
-2.30287677432305e-09
-2.17437479350885e-09
-1.82255966817095e-09
-1.22848446492753e-09
-5.14185406384364e-10
5.50865596060465e-10
1.57655450173708e-09
1.05774621017673e-09
9.0435303261644e-10
2.45011835437436e-09
2.29066360914606e-09
9.10622214135022e-10
3.20637351495384e-10
-5.67767417575255e-10
-1.37893447921165e-09
-1.96046632460818e-09
-2.56848019263426e-09
-5.53932999232017e-10
5.91089900273596e-09
1.01679263583179e-08
8.54552204489091e-09
6.1318678853713e-09
4.36483509426417e-09
4.54954956080778e-09
1.21971665880851e-09
-5.9791351243191e-09
-7.10219270669121e-09
-6.24755941593319e-09
-3.76612960710857e-09
7.05605482024932e-06
1.17870996387719e-06
-1.01963436874837e-05
-6.37825380590651e-07
-2.21736116112724e-06
-1.7236489613566e-06
7.03173233507095e-07
-2.44895295703931e-07
3.83589857579767e-06
-4.3506189343343e-08
2.17952697307949e-06
3.98530894595882e-07
7.69398141246941e-07
7.255405739524e-07
-1.43358195392165e-07
7.99024847170401e-07
-5.40849785127179e-07
6.42954848097643e-07
-5.52604746526951e-07
3.58273313046242e-07
-3.65149560405786e-07
5.2393328465343e-08
-1.51407714818171e-07
-2.01085493631228e-07
-2.17872749422828e-08
-3.70267923499906e-07
-1.02928115455969e-08
-4.45165250745365e-07
-8.1454613278289e-08
-4.4114797055701e-07
-1.86567618454001e-07
-3.80536936992051e-07
-2.59736274215622e-07
-2.80597208128305e-07
-2.70710949224197e-07
-1.62517784857823e-07
-2.03555278211258e-07
-2.59351807131469e-08
-7.70037606964666e-08
9.05851025875676e-08
5.19633063316805e-08
1.63622142695103e-07
1.44778712409634e-07
1.88142793959792e-07
1.82958705957969e-07
1.61603771468409e-07
1.64282241099201e-07
1.0700884244853e-07
1.06210167500672e-07
3.93708726838906e-08
3.6382613994977e-08
-1.44886618441527e-08
-1.36079926741966e-08
-3.30284443933975e-08
-2.50513064515147e-08
-1.41603708432748e-08
2.90747665840074e-09
3.73176580746462e-08
5.29679861430043e-08
8.33262047432128e-08
9.39126131500269e-08
1.16732589309397e-07
1.16705555891359e-07
1.19452162232715e-07
1.05441746965853e-07
8.32840013812427e-08
5.20933320411694e-08
1.50154610000827e-08
-1.90860583880898e-08
-5.48718699466148e-08
-8.11596481262687e-08
-1.05720000937905e-07
-1.17965903726878e-07
-1.24770252215948e-07
-1.18802748557144e-07
-1.05620864409804e-07
-8.31060029632194e-08
-5.47413327677073e-08
-2.46460277860293e-08
7.00734490532063e-09
3.57831657172701e-08
5.64254275136695e-08
6.48354574017698e-08
6.95143311884279e-08
6.53588691062777e-08
5.41929265268641e-08
3.62199248757387e-08
1.28472029292105e-08
-1.17476276798739e-08
-3.65875538369464e-08
-5.84368544793437e-08
-7.48974074433019e-08
-8.37964862396874e-08
-8.69695863881206e-08
-8.20532171386567e-08
-6.82952793208825e-08
-4.770288928835e-08
-2.11701651577393e-08
7.58811968516589e-09
3.48281504750827e-08
6.02930929245937e-08
8.10928047224054e-08
9.21655245325778e-08
9.4688868420443e-08
8.97596994679551e-08
7.85192889419795e-08
6.34753906634757e-08
3.81063306606301e-08
5.4407577567995e-09
-2.17878234428324e-08
-4.43550566052834e-08
-6.1599983268534e-08
-7.22817094377163e-08
-7.44393568376943e-08
-6.85920740013935e-08
-6.17022168522176e-08
-4.76325151957698e-08
-2.39692971507798e-08
2.58790273134888e-09
2.58853835050052e-08
4.30476205922798e-08
5.7719760771695e-08
6.43627443602487e-08
6.12267095242994e-08
5.78692505028312e-08
5.11636063117581e-08
3.82472801471664e-08
2.41070855856769e-08
3.93186854780009e-09
-2.03356430952087e-08
-3.70751980421875e-08
-4.63071976325592e-08
-5.64733074732963e-08
-6.75734955942648e-08
-6.46848688653062e-08
-5.25229878395877e-08
-4.18596069865743e-08
-2.47448985266958e-08
-4.98221753716658e-09
1.2983800800442e-08
2.99314585910582e-08
4.35593593673559e-08
4.89466880720224e-08
4.91813498387949e-08
4.85104051929534e-08
3.8654401040814e-08
2.44077494802528e-08
1.07565867860127e-08
-1.64656101047429e-09
-3.19052314421308e-09
-9.6388958568101e-09
-3.32802579398971e-08
-4.42510103019721e-08
-4.03036153996183e-08
-4.21577795267295e-08
-4.34094242832465e-08
-3.58540030916671e-08
-2.0872284689733e-08
-8.59935431623456e-10
2.06586813224407e-08
3.58850508308487e-08
4.68913227852295e-08
5.638946831241e-08
5.84391737688566e-08
5.03314045224204e-08
3.7570159158683e-08
2.68246198725786e-08
1.52878548919174e-08
-3.66608620044909e-09
-2.6594946620082e-08
-4.32831722669652e-08
-5.44992249450315e-08
-6.13878096660825e-08
-6.14169761869418e-08
-5.44063604466487e-08
-4.0258774856382e-08
-2.31321350107254e-08
-1.00214154505916e-08
3.4829534793265e-09
1.9047338225038e-08
3.1306919007369e-08
4.14584398282909e-08
4.75525894249904e-08
5.04139433740479e-08
4.94019991487295e-08
4.21414622189326e-08
2.9328250970937e-08
1.194800393502e-08
-3.68641125162519e-09
-5.7532588931694e-09
-8.10711482847803e-09
-2.84633443615545e-08
-3.82244294824597e-08
-3.5910740054916e-08
-3.74153039801212e-08
-3.38599980674094e-08
-3.2001666051942e-08
-2.37710730206149e-08
-4.3987335258427e-09
1.54924965374986e-08
3.3852811046881e-08
4.50553089795228e-08
4.71056810524149e-08
4.34786943648494e-08
3.79762747114236e-08
2.92317792853107e-08
1.71776841278276e-08
2.86962210237492e-09
-1.1319594281632e-08
-2.58892845783593e-08
-3.94391862209449e-08
-4.61696271439965e-08
-4.97697371231106e-08
-5.12400377097535e-08
-4.87377137476364e-08
-4.02094763766404e-08
-2.66608454029862e-08
-1.12655221256325e-08
2.41794999806923e-09
1.38197306653315e-08
2.56665918072721e-08
3.34956783401434e-08
3.91455506596393e-08
4.39201653402635e-08
4.74964161859606e-08
4.8796269386137e-08
3.88538565106215e-08
1.75984631624525e-08
-8.44832950676334e-09
-2.19625004427282e-08
-2.18785480486399e-08
-2.29945329159051e-08
-1.80555787208998e-08
-1.20376697697993e-08
-3.88852470376115e-09
7.40489042648472e-09
-1.97779038391357e-10
-9.16004196788095e-09
-4.82017356297793e-09
-1.29127652989592e-09
6.72581477624585e-09
1.39298751506924e-08
1.76977523697276e-08
2.24686989276442e-08
2.248181127515e-08
1.73600271523472e-08
6.31591253346148e-09
-5.54083057864507e-09
-1.8975912544942e-08
-3.22623981592501e-08
-4.14075787033042e-08
-4.84039046890366e-08
-4.96644244340773e-08
-4.00784575316109e-08
-2.75851140107468e-08
-2.23970627539706e-08
-1.26863824768079e-08
1.34579038151523e-08
5.16526866701932e-08
5.45302818988355e-08
2.08446659489027e-08
1.90720550884478e-08
3.29073380114969e-08
4.09571402667127e-08
4.75320166859699e-08
3.90490662013842e-08
2.83774337952132e-08
1.59574997877963e-08
-1.05036046092221e-09
-2.13971973517932e-08
-3.6651843254302e-08
-5.01461412199763e-08
-5.48028284372765e-08
-4.48945170987181e-08
-3.73683579138303e-08
-2.7670703413687e-08
-1.7735576928375e-08
-7.604513691284e-09
-2.23539820821213e-10
6.00203387984655e-09
2.00527759951761e-08
3.77000075710377e-08
3.92632694369154e-08
3.55205604100495e-08
4.04874746767405e-08
2.85770340346554e-08
1.92199532250897e-08
1.41972198167204e-08
-5.75457770663286e-10
-1.0109263633517e-08
-8.59038262717939e-09
-1.10960849077651e-08
-2.90708057022908e-08
-3.81579807968688e-08
-4.54743430172616e-08
-4.98711925784028e-08
-4.17820823188238e-08
-2.91067862088566e-08
-1.35107258842315e-08
2.64879218178437e-09
2.39427118716618e-08
4.13551239415267e-08
4.65787612063053e-08
3.92667614832039e-08
3.73807116014922e-08
3.99137678584651e-08
2.6715002067899e-08
4.06527156247012e-09
-8.11463699682947e-09
-8.15753590523354e-09
-1.1221003017283e-08
-2.12234957679873e-08
-2.89792757984579e-08
-2.36316773748738e-08
-1.94556407825974e-09
2.71004836692273e-09
-1.51476784791019e-08
-1.49061430723343e-09
7.74951564356755e-09
2.61323452834839e-09
4.48348018810369e-09
-1.39427321184509e-08
-2.25559919388141e-08
-9.74383739329343e-09
1.03183322468419e-08
3.02537837140975e-08
4.19268573207025e-08
4.679399828395e-08
3.49642027701406e-08
6.79156683264532e-09
-8.09382842852256e-09
-1.45738139116771e-08
-2.77735090963389e-08
-2.70356600711914e-08
-1.8591737580574e-08
-2.56416348447386e-08
-2.71674082817793e-08
-1.70524400426941e-08
-6.30519189771143e-09
5.67648589664006e-09
1.04548558145472e-08
1.06358371770959e-08
3.27986470930654e-09
1.53618873959067e-09
1.19969614806951e-10
-4.47531626496145e-09
-6.56596894396178e-10
1.74686214914118e-09
-8.79222862807908e-09
-2.35612397706657e-08
-2.32529360102957e-08
-1.67750247508818e-08
-7.11601336056893e-09
-6.90491827402067e-09
-6.66740777558902e-09
-2.58985327434567e-09
-7.95307750413097e-09
-3.39813147868757e-10
2.58649124886699e-08
3.99386275262634e-08
2.61221540264879e-08
2.99391889129356e-08
5.93849178576062e-08
7.62701044937696e-08
5.08652893871545e-08
1.32109965156703e-08
-3.52012738174345e-09
-1.73176479341824e-08
-2.14916311055835e-08
-2.12371128309723e-08
-1.22128631995736e-08
-1.1880921335214e-08
-2.20068786885128e-08
-1.47182665748853e-08
-2.33062141847522e-08
-3.86428927971325e-08
-3.43020467831283e-08
-3.3055304047624e-08
-2.42255887751462e-08
-5.06323804059265e-09
5.02874558716942e-09
3.1825310092413e-09
2.76300975060377e-09
1.30477129522946e-08
1.94899387753116e-08
2.49276010845844e-08
2.42461285010392e-08
1.19045359876136e-08
-6.59047519768405e-09
-3.05720663694379e-08
-4.57746328316338e-08
-4.22074894350245e-08
-2.71685396526917e-08
-1.27209479974904e-08
-4.38252943962155e-09
1.75496107318682e-08
6.15736210619865e-08
7.74885884178651e-08
4.4521639640614e-08
2.59630847746123e-08
1.29945860575225e-08
-2.47812676259813e-08
-3.42973440326106e-08
-1.99807966865079e-08
-4.6522271857167e-09
8.82461341346075e-09
2.59373845911618e-08
5.22263619819008e-08
6.6868972251631e-08
4.40886411414686e-08
1.05602157844701e-09
-1.75615865081824e-08
-2.67205214020978e-08
-3.25349327049309e-08
-3.51746216742846e-08
-4.57886285649413e-08
-5.37005000734857e-08
-4.90564409917709e-08
-4.08912086553555e-08
-3.84631420811591e-08
-2.97096889509086e-08
-1.42234064544187e-08
2.30833331028237e-09
1.96449802836697e-08
4.68987571555843e-08
5.96828274864022e-08
4.11459904341978e-08
1.2723729113801e-08
-2.31581913607298e-09
6.44683086938328e-09
-4.47782019954827e-09
-2.32698075517293e-08
-1.63099586256354e-08
-8.81882339136246e-09
3.26741430043538e-11
5.76611477819973e-09
4.33918461708837e-09
1.31788721411303e-08
2.11914755910339e-08
2.06461673411559e-08
2.32618282654372e-08
3.24543675229542e-08
2.9698965528202e-08
8.52673375943957e-09
-4.40719154573766e-09
-5.34714455888729e-09
-8.80187445157134e-09
-1.68698771392096e-08
-1.39457496273501e-08
-7.21087267416403e-09
-1.20849456291178e-08
-2.01595967436253e-08
-2.31234408472651e-08
-2.07632465954672e-08
-1.60328737703349e-08
-1.47918609823678e-08
-2.64096424466646e-08
-2.61289322057799e-08
-1.52370383894326e-08
-1.38460835955955e-08
-9.49609719206986e-09
1.84895957020314e-08
6.80131546323358e-08
9.04404238948524e-08
4.10246983590343e-08
-1.46713941242462e-08
-1.52970504850279e-08
-1.11896444021147e-08
-1.30179003575944e-08
-1.9036978251782e-08
-1.5940611656337e-08
4.61869579296183e-09
1.89337429790596e-08
3.32289071495458e-09
-1.72231948956493e-08
-1.01807989052685e-08
-8.77742364706547e-09
2.66949487967932e-09
2.37557121331887e-08
2.3856331340731e-08
1.13885516973887e-08
2.15446061140882e-08
4.27248274192342e-08
3.46417116722454e-08
1.38629574749837e-08
-4.69993771277218e-09
-1.88792407087305e-08
-1.58945685847815e-08
-1.66467154369555e-08
-1.81232459485224e-08
-1.79830942404664e-08
-2.26213002549797e-08
-1.51950666134765e-08
-1.56392143009642e-08
-1.78907554336118e-08
-2.22328357758322e-08
-2.0767376353643e-08
-1.60871415746561e-08
-1.41882078856021e-08
-1.6318716275992e-08
-2.49001271365634e-08
-2.32141346335533e-08
-2.40148474103643e-08
-1.37101274975644e-08
2.20465563175108e-09
1.36353396580204e-08
2.21968122993426e-08
3.13510674843708e-08
4.31980015729879e-08
4.28786978403134e-08
3.03344679862605e-08
-2.71726695603743e-09
-2.51031021314938e-08
-2.11860172512205e-08
-2.45539202385263e-08
-1.81159243406459e-08
7.86983062376648e-09
3.18132722892473e-08
4.9412017363539e-08
6.00844864675421e-08
7.30669189082933e-08
7.57538295301426e-08
4.55054617740184e-08
1.37176932607311e-08
2.68241921669136e-10
-9.54521695960419e-10
-1.67818649094653e-09
-1.88097757360087e-08
-3.71035783928151e-08
-5.21436666434119e-08
-6.53965802045851e-08
-6.62488843091824e-08
-6.00115253916059e-08
-5.43852075725305e-08
-3.69274951275605e-08
-7.00030183654123e-09
-6.49005208747233e-10
-9.58483695027126e-09
1.46346331659916e-09
1.02515394866572e-08
1.31052728859264e-08
1.49828279094956e-08
1.98201041342022e-08
3.54449479724452e-08
1.01593399813959e-08
-2.04894237465755e-08
-1.23796558231672e-08
-9.46900169243802e-09
-4.89109174162275e-09
5.67754882963462e-09
2.92528254671378e-08
4.50131312941676e-08
1.7824413330939e-08
-1.9284476758258e-09
2.63755411937209e-10
-1.96323772778455e-09
5.4180982880022e-09
2.94206343433041e-08
2.89280688770332e-08
7.86265270673536e-09
1.52448254483405e-09
1.05065628879241e-09
1.32097540824378e-08
1.63391501028663e-08
7.83487418680029e-10
-5.82231186043817e-09
-4.70785509425959e-09
-7.45038662636437e-09
-1.67714828712345e-08
-1.87605866043404e-08
-1.62478775350139e-08
-2.03969703763696e-08
-2.54513114515707e-08
-2.62378174112631e-08
-3.57810790902e-08
-5.42056295614675e-08
-4.62808103065995e-08
-1.37742896949499e-08
1.40928632714899e-08
3.85895739537263e-08
4.37826182197742e-08
3.6080453464631e-08
3.24506506279407e-08
2.53398012535102e-08
2.07481271730069e-08
1.46211576047548e-08
8.94986700069656e-09
3.00650081713666e-09
2.60154973736695e-09
1.84532537845931e-08
3.99312903151048e-08
2.55504527453648e-08
-5.50390769419525e-09
-1.47848863451006e-08
-2.94911259830345e-08
-3.13055349756871e-08
-2.41764161987338e-08
-1.9244705629375e-08
-1.83891249362656e-08
-3.29534119947362e-08
-4.40684617398292e-08
-3.02820101882865e-08
-6.03912498518677e-09
1.45636553247893e-09
6.95523481047596e-09
1.94338449011004e-09
2.0737555578535e-09
9.76236713338099e-09
1.37238933300069e-08
2.66980365812695e-08
3.738600854021e-08
4.65580752136285e-08
4.5434482985691e-08
3.35767607954275e-08
2.28594579652429e-08
1.06315030315791e-08
-8.07174787346236e-09
-2.55378938793118e-08
-3.7624729524339e-08
-4.21339469902469e-08
-3.64721626780787e-08
-2.22896842122701e-08
-1.10431539344119e-08
-1.31174218875568e-08
-8.83543642604935e-09
-6.06116208511884e-09
-6.5936344651841e-09
4.85284738974228e-09
1.03740989860052e-08
9.0250329669564e-09
2.48865955878017e-09
-7.44870936504749e-09
-1.2252642655999e-08
-1.07911027453641e-08
-2.38739026744141e-09
2.96715932336674e-09
2.50044723882643e-09
2.86930457881487e-09
5.32215997751569e-09
8.62762034094539e-09
1.06109609643148e-08
1.2125298586017e-08
1.62223761643557e-08
1.70368711373421e-08
1.98649962935564e-08
2.01508125220189e-08
1.36964628565687e-08
1.60540993079767e-08
2.28305696136658e-08
2.8972126101052e-08
2.75794027903367e-08
1.287798579384e-08
-1.98515480395778e-09
-1.15402424353843e-08
-2.54857336949195e-08
-3.0918162142946e-08
-2.20380775614897e-08
-2.03334395637642e-08
-2.64267328847675e-08
-2.76795572167752e-08
-1.99604409198613e-08
-7.38220540536748e-09
-1.10537646471515e-10
-2.90816236126728e-09
-4.98872470501808e-09
-4.63971212401601e-09
-4.29935963763164e-09
8.82342101662394e-10
7.63580572848344e-09
1.11994083831825e-08
1.24329646373494e-08
7.58072076450238e-09
3.12432309710436e-09
5.59225451896137e-09
-6.94821249477113e-09
-2.36547896608392e-08
-1.86333048572299e-08
-1.02534552063548e-08
-7.64269994523512e-09
-8.0456689989301e-09
-2.65277151493188e-09
6.57078911761039e-09
9.40884085475694e-10
-1.62472634526077e-09
7.59379751235972e-09
1.36062594572979e-08
8.83501396378377e-09
-6.66072971873592e-09
-1.025044340849e-08
1.9997376009173e-09
2.31003908562132e-08
4.71457914821904e-08
4.19061814452791e-08
3.85500891743368e-08
4.32019778437423e-08
2.73607403225678e-08
1.02291131941324e-08
-1.52578896872004e-08
-1.98942350124195e-08
-5.65965952915959e-09
-1.04891747452428e-08
-1.88606156712248e-08
-2.95007473554499e-08
-4.7667177014159e-08
-4.73271770465418e-08
-3.16498597067319e-08
-1.26001216090355e-08
4.06231755528712e-08
9.51738220944309e-08
6.9840942838603e-08
9.28377106912745e-09
-1.39327733990268e-08
-3.130885942064e-08
-4.36118492278905e-08
-4.22188371573496e-08
-3.83215783373309e-08
-2.96908756289951e-08
-1.48446011966788e-08
-6.21002574278449e-09
-1.24435594166557e-08
-3.92723233284644e-09
-1.50621646615467e-09
-2.89316888425081e-08
-4.09294644155959e-08
-2.40226909020634e-08
-9.58372437845171e-09
-5.48976813102044e-10
6.55437677216709e-09
1.43502695767371e-08
1.66485080202408e-08
1.3150780886288e-08
1.3525874845699e-08
9.12440889406927e-09
3.37216009753258e-08
6.83691338721045e-08
4.44790716846872e-08
3.23852792345251e-08
7.59349685690592e-08
6.60493017450853e-08
1.27640041869489e-08
-8.44919846443824e-09
-1.88413221719358e-08
-1.98790129420629e-08
-2.46859620886513e-08
-3.54936040434976e-08
-3.22067142340359e-08
-2.8757154313646e-08
-1.52681115519627e-08
5.29271453480248e-09
7.18470107368827e-09
1.02921328324298e-08
1.86993494297711e-08
2.70197127416997e-09
-1.06540080360941e-08
-2.645290440316e-10
9.93939293364306e-09
-5.08193192501028e-10
-2.74795254954069e-08
-4.15420523864974e-08
-3.74946235647215e-08
-3.58531295736087e-08
-2.99679789765599e-08
-1.33541869224556e-08
-8.73508798884712e-09
-1.51166955154984e-08
-1.7952692659138e-08
-2.35097524858943e-08
-3.11529682949775e-08
-2.03588593189154e-08
-4.01723885295293e-09
9.65429051931052e-09
6.31171516405152e-08
8.98217143630881e-08
2.47957560194114e-08
-1.31279968034919e-08
-2.54081783029855e-09
1.76167836461365e-08
3.33353507463904e-08
3.33257792885766e-08
4.88631409061861e-08
4.5045514309685e-08
2.66219164445078e-08
1.0318314064569e-08
7.0930493658114e-09
1.38461013029996e-08
1.44345062128501e-08
1.12137878530402e-08
5.98269420400031e-09
1.14650752020926e-09
-7.77009946607101e-09
-8.71605456035358e-09
-2.41335266140287e-08
-4.84728184426508e-08
-6.01657079751926e-08
-5.37020638969179e-08
-3.96342344320317e-08
-2.1012189729137e-08
-7.77247158652833e-09
-2.10945393051967e-08
-1.56084910265001e-08
-6.03848775358651e-09
-8.68530563316516e-09
-1.52903677148587e-09
-1.19676114907888e-09
-1.7783608793626e-08
-7.57479287815975e-08
-8.81436279502966e-08
-4.71263737138656e-08
-4.40314658082576e-08
-2.06062861333821e-08
3.34874048655745e-08
8.79758285890749e-08
1.06780317658426e-07
1.02763218244075e-07
9.00363006837004e-08
7.94408344644264e-08
1.14915191159025e-07
1.11033708922183e-07
7.04949090968501e-08
8.90089219757184e-08
1.17978212304759e-07
9.17441797433211e-08
4.01337898401204e-08
-5.36776151068472e-08
-1.09300893747819e-07
-1.03480411153341e-07
-1.06358382522963e-07
-9.21728991067884e-08
-9.8325852653865e-08
-9.49385392531645e-08
-8.79865762049808e-08
-1.10814685980326e-07
-1.30180492988213e-07
-1.24840174277325e-07
-9.13778342404097e-08
-4.68144681810761e-08
-1.77995343139866e-08
-5.98236227446294e-09
2.26220261937974e-08
5.71969480275031e-08
8.84569138641871e-08
7.31517523410359e-08
4.02499593104335e-08
5.30503997275899e-08
6.19310562464574e-08
5.75700424682947e-08
4.44156511628152e-08
3.19683805410031e-08
3.16157359658844e-08
4.62116609945889e-08
5.55245289319237e-08
2.49347105768503e-08
4.88875797045498e-09
-2.14468268840794e-09
-5.42484185807366e-09
-1.61050043419266e-09
1.30941592698343e-09
-1.610596086919e-09
-3.62771329783398e-08
-5.2712047176257e-08
-3.84647955349982e-08
-2.76261237476618e-08
-1.05495642587763e-08
-6.5981567854418e-09
-1.41097490517237e-08
5.2830677446989e-09
5.51235052523209e-08
6.46026543028364e-08
-6.6596335755049e-10
-3.0387501425309e-08
-2.49929769642118e-08
-2.0071288334948e-08
1.7135476400357e-09
2.43120614277997e-08
5.89446085275958e-08
6.75439387736417e-08
4.38625358822888e-08
6.9364954093833e-09
-1.86912331224697e-08
-5.44373585178931e-08
-8.60107833902072e-08
-6.34103092081692e-08
-4.086458454112e-08
-7.42335523373791e-09
1.8589211604575e-08
8.73368747420844e-09
1.3222481763008e-08
3.5586610796546e-08
3.5459089272663e-08
1.83750084120476e-09
-2.36607545327062e-08
-2.25704749327261e-08
-1.22626325184575e-08
-1.05941392907621e-08
-1.62140780581084e-08
-1.8998917574298e-08
-2.32960342302471e-08
-1.57668438584404e-08
1.45051687033987e-08
2.76512389071162e-08
5.03032671109584e-09
-1.94116471887326e-08
1.36976946774723e-08
9.38623176794989e-08
1.1359408710591e-07
3.13545337483744e-08
-4.62426104412253e-08
-4.69951623096778e-08
-2.00009262309499e-08
-2.95848208570872e-08
-7.37289459692375e-08
-4.84362390751174e-08
1.31478688648774e-08
3.22967145873074e-08
2.61534875358054e-08
2.4844874209369e-08
4.49279134546049e-08
6.96614763879389e-08
7.33607568723101e-08
1.32483251278511e-08
-4.49183072345569e-08
-7.78680827262546e-08
-7.77985746576162e-08
-4.87196660350822e-08
-4.41334151501767e-08
-1.97690874202495e-08
1.22385541565587e-08
2.9110709752671e-08
2.32787883812823e-08
-8.78205956867309e-10
-2.36691379685296e-08
-4.7986892049828e-08
-6.61541736981948e-08
-8.12209224770618e-08
-6.7082378098305e-08
-5.54828976847923e-08
-7.55390351709987e-08
-3.04037195058309e-08
4.97323965323465e-08
8.48509875220744e-08
1.17715102557123e-07
1.57730981595486e-07
1.77050112718276e-07
1.57831463134492e-07
1.43824243842203e-07
1.19086380240803e-07
5.64075137263594e-08
2.83522613209151e-08
6.10962600440851e-09
-3.0477283792748e-08
-6.49304212484429e-08
-1.10562213014093e-07
-1.37758096111821e-07
-1.438142501888e-07
-1.39770700339134e-07
-1.26281254548726e-07
-9.81866805852146e-08
-8.86129381401738e-08
-9.73220799915491e-08
-3.49157328629953e-08
8.24054451593806e-08
1.35574467907598e-07
8.04735865155892e-08
2.0153209934665e-08
1.36094673820061e-07
2.50124147721929e-07
7.59973553637593e-08
-6.3308572114587e-08
-6.14801082067349e-08
-9.90385248722621e-08
-8.08291872413783e-08
-6.636523592115e-08
-6.95768590032325e-08
-6.15557950840432e-08
-3.79627266483448e-08
-7.1723500322133e-10
1.90760416883958e-08
5.11945708750561e-08
7.28777868775822e-08
8.13690255006224e-08
8.15765840731559e-08
6.90270646932564e-08
3.923048864405e-08
1.63620294557351e-09
-3.82444241162076e-08
-6.97277466286455e-08
-7.33157189030164e-08
-6.53586092253424e-08
-5.58937073212953e-08
-4.52135087575247e-08
-4.97319607515813e-08
-6.41833296265988e-08
-4.31951544815286e-08
1.95290209625476e-08
4.77565465611721e-08
3.95829835616056e-08
4.62790016981301e-08
5.27725273991724e-08
5.58662704961174e-08
2.45688326346258e-08
-1.43292850239336e-08
-5.13468871810146e-09
1.63437723527726e-08
8.0243083860181e-09
1.53730508905906e-08
5.75799645924733e-08
8.22912838912249e-08
7.373411764594e-08
3.95430230986259e-08
2.62980214413945e-08
2.07267293463772e-08
6.62647438724442e-09
-9.23944291330227e-09
-1.38815209416612e-08
-2.41651820550726e-08
-4.47349009915112e-08
-3.33177674883832e-08
-3.4690497500565e-08
-2.6274639043441e-08
6.8442881244731e-10
1.13296044551145e-09
-9.97135880267769e-09
-1.68220978791807e-08
-4.98701871276056e-08
-8.67870657149093e-08
-8.25942054160753e-08
-6.74433826761817e-08
-4.90987739260895e-08
-2.74518769910783e-08
-5.84555805201707e-09
3.50488670436112e-08
1.01283294652325e-07
9.89021120874829e-08
2.29853258795908e-08
-5.8399182925267e-09
1.46743892486532e-08
2.01600253565913e-08
-8.08981111011285e-09
-3.10945940800474e-08
-3.98912307911371e-08
-5.77061310744105e-08
-6.39643982966937e-08
-4.45960759566412e-08
-1.54467024187156e-08
-2.38417303376036e-08
-8.46991810987662e-08
-9.56402341937489e-08
-2.77198150482145e-08
4.32293857413199e-08
1.01029799222056e-07
1.26634402094887e-07
1.32890145975341e-07
1.36075163593366e-07
1.23138574266267e-07
1.14158642429693e-07
8.59416420034658e-08
5.13170839043935e-08
3.78450765079775e-08
3.64993916194942e-08
3.99235175163584e-08
2.8152539088213e-08
2.10264046063828e-08
1.89536784531051e-08
-2.15042556386052e-09
-5.38686649816283e-08
-7.79628325455021e-08
-7.78190855847372e-08
-1.34912409517816e-07
-1.55903137612691e-07
-1.36855354482876e-07
-1.43290414054241e-07
-1.41132727074987e-07
-1.20240937880183e-07
-8.67408840327756e-08
-1.83825294169433e-08
6.59123884502422e-08
7.93915236673569e-08
3.7314550339312e-08
-2.68890909533073e-09
7.42411701008236e-09
2.29714418556363e-08
1.33175764006342e-08
1.04889451492959e-09
2.91835896704283e-09
2.8193498056725e-08
4.25281151143333e-08
5.46871718174543e-08
4.75934285821588e-08
4.65606078348114e-08
4.18842568280726e-08
2.50986064393625e-08
3.49834353550706e-08
5.95411067225672e-08
8.2245161055471e-08
7.05987511310492e-08
3.5021757134298e-08
5.2318727353956e-09
-3.20515821094956e-08
-5.89570788981536e-08
-4.72780017657384e-08
-1.88201936164866e-08
6.15108152867104e-10
-1.09327129531084e-10
1.43950925762584e-09
1.07315749494222e-08
2.20260730131644e-08
2.60423726221182e-08
-4.0407176195514e-09
-2.99356203797708e-08
-2.0206973756886e-08
-4.13300651357856e-08
-6.41244491970473e-08
-7.61516360687225e-08
-1.16836158101286e-07
-7.75627646398014e-08
-9.12981450233963e-09
1.97972372833992e-08
3.545602074645e-08
4.4532356908381e-08
5.14323004004935e-08
3.71529261962937e-08
3.0570908854799e-08
8.82323436321636e-09
2.88415730365645e-08
7.09705142843594e-08
7.55754669472965e-08
1.11136502236941e-07
1.11166534553793e-07
3.32291104896116e-08
-2.19017958052e-08
-3.50130415670283e-08
-7.87349643161632e-08
-1.11830882411791e-07
-6.91253427702177e-08
-2.15365266845996e-08
-1.11262964759329e-07
-2.40966033275299e-07
-1.6918048540773e-07
-7.85934669917686e-10
8.76787244203069e-08
1.06614677190128e-07
1.07922041428447e-07
1.05335998910836e-07
7.98401387365713e-08
1.11410522252561e-07
1.34913489236344e-07
4.75593601288553e-08
1.32727286511865e-08
3.59748839946795e-08
2.39139373675382e-08
5.30551748877875e-11
-3.623651898027e-08
-4.10918912187337e-08
-3.93537115707981e-08
-7.08696908438532e-08
-9.84650938082429e-08
-9.49599652971749e-08
-8.64169101738994e-08
-1.00027486641649e-07
-9.78431702363397e-08
-8.56694498013673e-08
-8.89883606841307e-08
-7.54370912704811e-08
-5.08241035452846e-08
-4.26369239519977e-08
-1.86701570184403e-08
2.31290771732358e-08
7.92736402965157e-08
1.10609853870132e-07
9.17857669636246e-08
8.36756909717855e-08
8.81259032015253e-08
7.53346035653063e-08
6.03217077570726e-08
6.05341906548439e-08
5.0131812678914e-08
3.74451594015148e-08
1.93969639971831e-08
-6.19230018260767e-09
-2.26544215837646e-08
-3.40820442300307e-08
-3.77783425725108e-08
-4.17837676210299e-08
-2.85148175943572e-08
8.85835103900706e-09
7.06081973055632e-08
1.25963882053316e-07
1.2577910134501e-07
9.13681218912664e-08
6.32659641613807e-08
5.2570301457853e-08
6.11589139579027e-08
6.22879977812084e-08
1.94839027800918e-08
-5.15279865819701e-08
-1.02626993583001e-07
-1.05891524610436e-07
-8.1774635799886e-08
-7.3828586006414e-08
-1.00980742318919e-07
-1.31143798346875e-07
-1.15752430150806e-07
-8.18928070142308e-08
-8.18072698581964e-08
-5.93573938901619e-08
-3.61614547880386e-08
-3.5654993674082e-08
-1.08964408328107e-08
1.66896569785818e-09
9.55956394163148e-09
1.40884382473809e-08
3.25337123910973e-08
4.41943893133553e-08
2.87620515394221e-08
3.33402304281325e-08
4.29305200339874e-08
-7.18714430281189e-09
-8.26759055310789e-08
-5.60550978385603e-08
2.84146441703914e-08
1.23326194878423e-07
1.96191245059392e-07
1.97389905007583e-07
1.41966612455558e-07
6.22415557901586e-08
9.25531267620715e-09
-3.70243990407783e-08
-4.25177985137597e-08
1.3053873373072e-08
6.51365859534905e-08
9.42019443751996e-08
8.21051163076058e-08
2.53273454105384e-09
-5.3595421400278e-08
-6.28884880159372e-08
-9.82666900083671e-08
-1.15601171526729e-07
-1.30886353979012e-07
-1.32087492018768e-07
-9.92909743835755e-08
-9.05635481965477e-08
-7.18449436275425e-08
-1.52372963449161e-08
2.06727027846077e-09
-4.36944187858391e-08
-5.61926586090502e-08
-2.67727894665975e-08
-3.95106000034836e-08
-4.92048978748962e-08
-8.46465224393122e-09
7.41248963620069e-09
2.89500662321388e-08
6.89808498735209e-08
1.12800810631206e-07
1.41052064900053e-07
1.09297263942922e-07
7.79140672097391e-08
5.79749957641696e-08
4.38640588101126e-08
5.02810687387113e-08
5.66555882157882e-08
2.03825074251288e-08
-1.33741240908891e-08
-1.60071963409216e-08
-4.7861724783971e-08
-7.46268066690013e-08
-6.15622269886932e-08
-2.7324136004634e-08
1.77619148185829e-08
4.65224208089563e-08
2.5700704515182e-08
9.65618712485007e-09
2.03399089589155e-08
2.55639589494674e-08
2.59325176510082e-08
6.53338864619373e-09
-1.96731420265617e-08
-4.7574133562602e-08
-2.82886444794931e-08
4.20458994494147e-08
2.06361800239658e-08
-6.24536971783198e-08
-8.21017735031266e-08
-7.42931002998273e-08
-4.48056219167186e-08
-1.46553528542813e-08
-1.58822450911316e-08
-1.48537330878454e-08
1.32155386467493e-08
4.42397653749146e-08
1.39397023508356e-08
-2.07559168481161e-08
4.27551927418709e-09
5.08437784885244e-08
3.03252986578235e-08
2.38404223748176e-08
7.87705163838498e-08
3.98893355075635e-08
-1.69673789752611e-08
-9.78943821027463e-09
-1.88463609407861e-08
-4.40060025540406e-08
-4.98914284868157e-08
-7.44159238957996e-08
-1.33285090797108e-07
-1.5194083910949e-07
-1.13071773279324e-07
-7.08051376513175e-08
-3.31699522307627e-08
-2.84139746542002e-09
2.49328640354518e-08
1.55664528704779e-07
3.76044793536159e-07
3.71620502656458e-07
1.22809337217179e-07
-1.17179318084295e-08
-2.44957429408781e-08
7.17135879377131e-09
5.53972266205901e-08
5.43020726895886e-08
3.06618325667045e-08
-3.45696176776704e-08
-7.82038489492485e-08
-9.42609356216723e-08
-1.03511664812832e-07
-8.79222782905443e-08
-8.39658853872543e-08
-7.18422127915457e-08
-4.70092361797391e-08
-3.1398912710697e-08
-2.70419765148687e-08
-2.03579872077149e-08
-1.12350508431328e-08
-1.13664132264858e-08
-1.67228471882701e-08
-1.4540066593253e-08
-4.5066319767915e-09
-2.26414194085112e-08
-3.52605135476457e-08
-3.5314975179177e-08
-4.44912459623198e-08
-2.0554586830451e-08
5.58409033106448e-08
1.28877184212226e-07
1.02812320210021e-07
5.60827846925172e-08
1.10678788565451e-08
-4.29413145837102e-08
-1.05074887130603e-07
-1.79194628336161e-07
-1.23557845969354e-07
1.0101175400016e-08
9.22993967061668e-08
9.60227741171147e-08
1.05187839137994e-07
1.08210168718989e-07
4.66826391053691e-08
-1.07392767750684e-07
-2.83771646193365e-07
-1.92582359229677e-07
8.3813911631937e-09
1.52448977580562e-07
2.83271310137518e-07
3.22639836562099e-07
3.28900455457246e-07
3.07038163300078e-07
2.39363299250422e-07
9.46471993315997e-08
-5.88510106162033e-08
-1.02287612526844e-07
-1.01769237659941e-07
-8.53042486559376e-08
-6.39558309907792e-08
-1.23732355097703e-07
-2.01314958739973e-07
-2.21716782161291e-07
-2.36441586790147e-07
-2.1903593262844e-07
-2.01811767262576e-07
-1.7944995488276e-07
-1.28114192220291e-07
-1.043552117114e-07
-7.69207993048364e-08
-2.96974090574387e-09
4.81578091248524e-08
1.41199809684973e-08
-3.65317034117846e-09
1.15439431146248e-08
5.3433034565848e-08
1.19408384744028e-07
1.35172005149473e-07
1.56444033413228e-07
1.9196362372223e-07
1.7484145033437e-07
1.29990519129139e-07
7.04584633335308e-08
2.56190526566481e-08
2.07965395117642e-08
-1.40244644875907e-08
-6.98274633304337e-08
-9.70034206116441e-08
-8.88694274735214e-08
-4.72855971413114e-08
-1.54709352356858e-08
3.00002661556758e-08
9.43013616293931e-08
1.19107254472322e-07
1.37984375118945e-07
1.59427919126694e-07
1.56468824475798e-07
9.43378390146346e-08
1.81711117410053e-08
1.07773000468842e-08
8.87061406422343e-09
2.01719291275022e-08
2.16260580228747e-08
-5.07851034284324e-08
-1.37127291572321e-07
-1.71716480472401e-07
-1.52644294528101e-07
-1.66735903223335e-07
-2.06707611083065e-07
-1.79381719742191e-07
-8.43152645855326e-08
1.16117468740199e-08
5.94621432113669e-08
-9.09974060002696e-09
-7.60370963171794e-08
-2.16555043938732e-08
1.24001955497047e-08
1.72969487030015e-08
1.92067576720078e-08
2.08616323100213e-08
1.65415940189795e-08
-4.25280601266819e-08
-7.37084810813783e-08
1.62264465544206e-08
6.2958539931577e-08
-8.13086123220256e-08
-2.49369354169578e-07
-2.57981601984617e-07
-1.24414256715071e-07
4.2761415940984e-08
2.64819313851748e-07
3.18905135545648e-07
1.79283816634759e-07
3.33350557260814e-07
5.46326473372482e-07
5.01367028690368e-07
4.84217725948613e-07
3.53134646135747e-07
5.23918389943144e-08
-1.39252879365114e-07
-2.43662366245993e-07
-3.08989503418367e-07
-3.31569898211971e-07
-3.40486074700132e-07
-3.83234228362036e-07
-3.67862613545595e-07
-2.40609218355139e-07
-9.67529366096457e-08
6.2478177110231e-08
1.58203329087287e-07
1.07377031502174e-07
2.16214858839347e-08
-5.2420077706259e-08
-2.19984716177599e-07
-3.20232413556977e-07
-2.74205413025738e-07
-1.17758626890006e-07
7.91891470618702e-08
1.23451709196678e-07
1.30705840648126e-07
1.61216457058554e-07
1.59331700007873e-07
8.29476135425953e-08
1.79170441999154e-07
4.30144950314569e-07
3.90178540743633e-07
2.41694586075773e-07
1.45868552937753e-07
-5.30395596297936e-08
-2.92693073818335e-07
-3.9652897834565e-07
-3.4636299567646e-07
-2.55829734309669e-07
-2.22612672520587e-07
-1.71511818894876e-07
1.85950760319587e-08
1.62185759699839e-07
7.64909152478924e-08
-6.42510524882025e-08
1.79511494737555e-08
6.92910223153962e-08
-2.92328265283103e-08
9.99149104326317e-08
2.36270367538969e-07
1.50480547168218e-07
4.63278867086703e-08
2.5609905232039e-09
2.35390938329817e-09
5.77420548229724e-08
7.6881379913458e-08
6.26771643981266e-09
1.18508597627154e-08
3.13401261959889e-08
1.36296506334181e-08
-1.14781448807353e-07
-1.72936755753506e-07
3.02817881657752e-08
7.74314275859448e-08
1.35413580093194e-08
-6.96724213630907e-08
-1.76217991937716e-07
-1.11188668756677e-07
-8.18497638473147e-08
-1.41872748078987e-07
-1.63535232433835e-07
1.35394387214471e-09
2.327814858942e-07
2.37497895042018e-07
1.79991485728668e-07
9.59489890182856e-08
-1.06970437424235e-08
-6.19333028968107e-10
2.72898450643207e-08
-3.61139204448794e-08
6.56098097015195e-08
3.75022219213386e-07
3.97186394185361e-07
2.7271225243654e-07
2.65323781325948e-07
1.84616119253931e-07
-3.39123656009336e-08
-4.70165314631901e-07
-7.11343987925679e-07
-5.32162129237966e-07
-3.57771727230991e-07
-3.92282171264532e-07
-3.72151560780075e-07
-3.82888513681373e-08
4.84438901502658e-07
9.575641395974e-07
7.66303671127225e-07
1.51239185761015e-07
-1.43606626120402e-07
-2.33276059257832e-07
-3.35612847680665e-07
-3.59191193941128e-07
-3.40857742228126e-07
-4.44794374457325e-07
-4.67097995438131e-07
-3.11338626575172e-07
-1.94306703022783e-08
2.56807851420473e-07
4.84740728304328e-07
4.2800655653005e-07
2.46172985083619e-07
1.87500943632184e-07
-1.49083600601026e-07
-3.08126966254719e-07
-4.34105750390922e-08
2.02625687022123e-07
2.24552804100256e-07
1.26686259066827e-07
-4.31893626349283e-08
-2.34543091520994e-07
-1.60267053611664e-07
5.90357873922834e-08
2.06031125046427e-07
2.66395183558521e-07
1.76294634860879e-07
1.23949836234022e-07
-6.03715064298312e-08
-2.85360101863708e-07
-2.10922816324881e-07
-1.28238061456808e-07
7.98801253816489e-08
2.29366051651035e-07
2.44032123046722e-07
1.6730209385503e-07
-4.72741828481949e-08
-1.04376009287027e-07
-1.03216065019326e-07
-2.26483427809974e-07
-3.23760131727864e-07
-1.52776619527328e-07
7.11457630434057e-08
3.06645267308321e-07
5.82090993869193e-07
5.42123328534317e-07
1.49501798003285e-07
-7.03457232341061e-08
-7.41217765092821e-08
-9.30791854426675e-08
-1.81575768414537e-07
-2.29345699277561e-07
-1.87610126779607e-07
-3.0699000192074e-07
-1.46334453962279e-07
1.27150920208105e-07
1.19472699509683e-07
-3.89378178627111e-09
-3.27141560941493e-07
-5.88806439787832e-07
-4.49294596401864e-07
-1.41577788321664e-07
-1.97606112283107e-08
9.55495030877235e-08
2.61483516731831e-07
2.04370059003618e-07
-1.68700790928396e-07
-4.27250450173474e-07
-5.08636715858121e-07
-2.17509806859021e-07
2.94499631397559e-07
2.97033765868084e-07
4.9886256476785e-07
8.69044618912912e-07
9.18224002223355e-07
6.67506414087049e-07
4.33361272632221e-07
8.16562920755814e-08
-6.11609167397372e-07
-6.97134331576815e-07
-4.7465480335158e-07
-7.87230979527412e-08
1.86683961743645e-07
-2.5521274667122e-07
-5.04744857750631e-07
-3.54891472239583e-07
3.41332379980643e-08
2.84762071680474e-07
9.73018117816775e-08
-1.20224252133897e-08
4.41726628082019e-08
9.95001890458955e-08
1.49928266509058e-07
5.34925328910217e-07
8.14925843760522e-07
7.07653159325419e-07
4.98172656930654e-07
-1.45548926796278e-07
-2.11280579102228e-07
6.49596932729572e-08
-2.4285828608616e-07
-2.59223586408817e-07
-2.38758826844084e-07
-7.77758652983029e-07
-1.07423999977831e-06
-5.43493275258183e-07
-1.64708672837232e-07
-2.82549073228864e-07
-2.19142806291264e-07
1.91929321285491e-08
2.6405806253486e-07
5.59708065908494e-07
4.37319030425911e-07
-3.81246728495718e-08
-1.4431104281627e-07
-3.95892290348373e-07
-5.3480824398788e-07
-1.38620469024504e-07
-8.54687249862963e-08
-1.36943872463834e-07
4.20027424275454e-07
9.15802520639268e-07
4.46484810007578e-07
-7.28042780707281e-08
5.04325289791292e-08
1.72578213277267e-07
3.54795128819664e-07
2.68626624025103e-07
2.4875467918356e-07
6.50260721530064e-07
4.72005539056181e-07
4.01547856321394e-07
1.47030099170788e-07
-7.34514285336287e-07
-8.20355842158605e-07
-5.96220914259035e-07
-7.93025956960387e-07
-9.05752539824148e-07
-6.49508561541222e-07
6.34432372388804e-08
5.40565375287797e-07
8.12217231081446e-07
1.00383184671411e-06
6.89520280426197e-07
3.83706536666927e-07
-1.76730374221099e-07
-4.40272229070363e-07
-6.77218545709766e-07
-9.7833865545908e-07
-4.07067736585017e-07
1.78159233543517e-07
1.92735805430994e-07
-2.01495231961275e-07
-1.06315869813923e-07
2.00939472721929e-07
-2.06180019377979e-08
-4.7884284017394e-07
-3.45821915649567e-08
5.84981392718251e-07
6.65987117059351e-07
9.84483264517183e-07
8.91937828428033e-07
4.76553928423168e-07
-2.07903716160111e-07
-9.27577363141088e-07
-9.10725023666038e-07
-1.94077480280682e-07
1.82540434548103e-07
2.7883958785039e-07
2.23499722674195e-07
3.25255552487077e-08
-7.73595055900066e-08
-1.76960011649199e-09
1.27256871170016e-07
-6.26053022512331e-07
-5.68017860822073e-07
-4.77444082016327e-07
-6.904976604636e-07
-4.88070482230297e-07
-5.27230854314979e-07
-3.00093015721135e-08
3.69101901146488e-08
-6.71385815491785e-08
2.0125853810289e-08
3.45650074737507e-07
6.65351684030642e-07
1.02763525980303e-06
1.24467391607019e-06
1.05657663155675e-06
9.70972739073428e-07
2.07630361835435e-07
-4.68845615847928e-07
-1.05589528040523e-06
-9.46429936469649e-07
-3.69737313096861e-07
-3.41282157869275e-07
-1.75073634599172e-07
1.73368579132531e-09
8.75355282628824e-07
1.31747761582836e-06
1.3877824144086e-07
-2.96460514349873e-07
5.28445928467245e-07
4.23723901182251e-07
-3.9750513107439e-07
-1.05146439401761e-06
-1.09340246740722e-06
-6.13869868962399e-07
-1.91807256382427e-07
6.76352894298684e-07
7.01150996552139e-07
-1.83283380292575e-07
-7.56249470005396e-07
-7.46215205301571e-07
-9.9725170233706e-08
2.66910580842773e-07
-2.05510336744116e-07
-1.13180338001035e-06
-1.18011064267768e-06
-6.59494118715403e-07
2.1840552786326e-07
1.41685397999357e-06
2.50034840690761e-06
2.62219742670781e-06
1.39573207629101e-06
7.6873291446526e-07
-2.18921319940702e-07
-1.36608304883021e-06
-1.66259390726781e-06
-1.61185446231105e-06
-6.41109425219e-07
5.22076809254756e-07
8.25984194813674e-07
-8.44042951745549e-08
-9.61186872108139e-07
-1.27938208768461e-06
-1.53552904570243e-06
-1.05154717151593e-06
4.01327936887545e-07
1.97436561808953e-06
2.45654817445701e-06
1.19239435283082e-06
-3.59322186400609e-07
-5.33667813532e-07
-2.0225551720317e-07
-2.6533801904275e-08
-6.03556650220547e-08
1.92555221554752e-09
-1.4125003994516e-08
-6.80415025759282e-07
-1.05215471662794e-06
-9.41509982872902e-07
1.00012409835712e-07
1.3555809570302e-06
1.56619121142533e-06
1.62478023700192e-06
6.58137256965802e-07
-1.09165413678599e-06
-1.51276440810157e-06
-1.42142759236602e-06
-1.1675266024405e-06
-1.73183006890618e-07
6.78718331878321e-07
5.72605245391249e-07
2.92425444117686e-07
8.66997544027223e-07
8.46365868017619e-07
-3.4425339214781e-07
-8.63215283459992e-07
-3.94978467125489e-07
-1.76384022696686e-07
-2.7109223696518e-08
-5.10125217045698e-07
-9.61015561344392e-07
2.93332314724682e-07
2.39747555605092e-06
3.26094242602975e-06
1.32703055342219e-06
-1.18492195595983e-06
-2.3154649120916e-06
-2.22036489566144e-06
-1.43922706345899e-06
1.20488989062792e-07
1.29878494537141e-06
9.44588335156395e-07
4.91967792032805e-07
3.15457417899444e-07
5.78471820110071e-07
1.01371473245046e-06
8.19804529514177e-07
4.0232084927735e-07
-2.67810732118518e-07
-9.19776311519004e-07
-6.5021036874804e-07
-5.72253272668738e-07
-1.93690218414185e-07
4.57162488776321e-07
-4.40121434056844e-07
-1.86614651326523e-06
-2.40065832363568e-06
-1.62950913116648e-06
-4.74817337453359e-07
2.97437596810257e-07
5.75032678974708e-07
-7.05501099637266e-07
-1.1534247132255e-06
3.99326992693729e-07
1.37038127408749e-06
2.22453792666428e-06
1.91361282259255e-06
4.8742596579615e-07
-4.64589988490432e-07
-4.71394918436957e-07
1.08624378067424e-07
-4.37109534665681e-07
-4.03907324229115e-07
6.38849872474017e-07
1.55726836016089e-06
9.43484492663701e-07
-8.79826479393952e-09
3.30106773227255e-07
-3.63605099774251e-07
-4.90917820796204e-07
-4.12881132073814e-07
-1.4480105773924e-06
-1.16276833623654e-06
2.23711163511558e-07
1.20817632638773e-06
1.049569244929e-06
4.92598641941231e-07
5.98728692442388e-07
6.07840738732662e-07
8.27942381056182e-07
8.65133188841446e-07
3.17173940285038e-07
1.40194529129879e-06
1.20146703591023e-06
-1.14636463014043e-06
-2.28602231569799e-06
-2.26042365844766e-06
-9.95200149541293e-07
3.95722060155869e-09
2.55303453960909e-07
9.11619649338459e-07
1.08834918755442e-06
-3.07352842489136e-07
-1.44039265456121e-06
-1.38984686837764e-06
-1.52957412008684e-06
-1.60905908195289e-06
-1.4995033069674e-06
-9.29656446993029e-07
-8.61615484078317e-07
-7.75552280399463e-07
3.69492281376223e-08
8.89341496373075e-07
1.88360019338209e-06
1.43728777670634e-06
1.30262301549274e-06
2.20943804833777e-06
1.10745555462049e-06
-3.62345451234234e-07
5.50363151602241e-08
3.48190356779858e-07
-6.58276666389245e-07
-6.87452533809814e-07
2.29814179490977e-07
1.32570875434148e-07
3.04282564381838e-07
1.19206231904117e-06
1.49223676111797e-06
-2.49713633430328e-08
-1.87356909644645e-06
-1.65921510167711e-06
-6.04431381851546e-07
3.88694242190493e-07
1.26320260096927e-06
1.81149317498259e-06
8.07261084088709e-07
-1.04839714958872e-06
-1.33837460594688e-06
-1.29171795794673e-06
-1.83378850470821e-06
-1.17776536408107e-06
1.32258870276403e-06
2.42802773644545e-06
1.9219649432848e-06
2.68326380208255e-06
2.39344431915002e-06
1.27077538016074e-06
2.61988147342381e-07
-1.12219520848388e-06
-2.53441398334193e-06
-3.96978024159947e-06
-3.6538557272774e-06
-3.78542078831393e-06
-3.66856978556209e-06
-1.62151213880322e-06
2.32299783249215e-08
1.44561886219317e-06
3.41429058436123e-06
4.23420860103397e-06
3.40413833266443e-06
2.78441298820836e-06
1.67464339247142e-06
6.35533311447444e-07
-1.00423576488492e-07
-1.23452178694161e-06
-2.86273009915468e-06
-3.98673283215403e-06
-2.57008912696475e-06
-3.82875137148181e-07
1.39539624737471e-06
1.82418453977972e-06
1.1519754308458e-06
1.4227487410063e-06
1.20732400094155e-06
4.42984467211637e-07
4.90854434040253e-08
-4.91226925716214e-07
-5.6270657461018e-07
-6.24622333462339e-07
-9.21790051467172e-07
-5.75982535914702e-07
5.10295238681317e-07
9.11932512120215e-07
6.33287949059085e-08
-5.80075827791664e-07
-1.51032902340645e-06
-1.770589083336e-06
-3.47901834487149e-07
1.48636749431829e-06
2.72396903246062e-06
1.11730653676222e-06
-1.11176340180663e-06
-1.07521375954755e-06
-5.67669590771742e-07
-1.04166949340009e-07
-5.85428701980314e-07
3.42313664163702e-08
1.81584187854081e-06
5.95703500376593e-07
-8.22547244173535e-07
-1.49561380150762e-06
-1.32142985361146e-06
8.43651795422254e-07
1.68596187344611e-06
1.7481689812122e-06
1.92591815905396e-06
8.09006695883584e-07
-3.64171052776955e-07
-2.97253387768775e-07
1.31866798759015e-07
-2.00758865100264e-07
-3.15084507709529e-07
4.413773785643e-07
7.53138069257362e-07
-3.89869947785464e-07
-1.44154263702811e-06
-1.85996647006512e-06
-2.65209754105756e-06
-1.49922606282883e-06
-2.52391856916155e-07
2.52696085961522e-07
1.1983872783548e-06
5.43677324404966e-08
-1.25581444778893e-06
-2.11768939562079e-06
-2.73774146459078e-06
-2.21313947949993e-06
-1.36964482806636e-06
-9.27121040235673e-08
8.77693147881581e-07
2.56655654432771e-06
5.98900574978232e-06
6.84845527214652e-06
3.51604580721882e-06
2.13306149050064e-07
-4.59858529042767e-07
-5.49527846084187e-07
-2.03376524141381e-06
-1.93290281640587e-06
-8.48152766075657e-07
-9.20310644352119e-07
3.99705342971095e-07
1.91042601720208e-06
1.60606083060155e-06
1.50130928101212e-07
-5.16479446440461e-07
-5.959180101044e-07
-8.62232619597849e-07
4.3391518256779e-07
1.78159486065159e-07
-1.61813615557163e-06
-2.11919474471595e-06
-1.43120364959684e-06
3.75789259205904e-07
9.03928064263965e-07
-4.15241363969815e-07
-1.0925807971114e-06
7.18646908685164e-07
2.98830024887809e-06
2.01033751376948e-06
-2.30248202233516e-07
-5.00620246497399e-07
-1.82331913710924e-06
-3.11520822344594e-06
-2.38671188021881e-06
-1.37175704588215e-06
-3.25726035493879e-07
3.60235757267548e-07
1.53159132184529e-06
1.2508558454313e-06
-2.78258721955585e-08
-9.63164838078015e-07
-1.670898290119e-06
-1.88082959326458e-06
-2.52073677940468e-06
-1.97800483698548e-06
-7.10206424277333e-07
6.02579033565829e-07
2.11480749018012e-06
3.20462931872367e-06
3.66067466355723e-06
3.15825190245658e-06
2.62146522109581e-06
2.00997751284002e-06
1.53726628811997e-06
1.95290368125731e-06
9.31577440423326e-07
-6.67011688240517e-07
-3.37814518550624e-07
-7.39859136416809e-07
-2.16023782310534e-06
-2.19036997327593e-06
-1.30256712992813e-06
-1.0353207575204e-06
-7.79275680369421e-07
-4.89780647682374e-07
1.61429326721124e-07
1.66841543961855e-06
1.65409486854864e-06
6.72868034833875e-07
-1.74991850922341e-07
-9.17778333755689e-07
-9.49483692497565e-07
-8.97404572031654e-07
-9.02094928760159e-07
-1.40640825154479e-06
-1.9854090823611e-06
-1.40422879960891e-06
-1.0865645477233e-06
-1.21028057384503e-06
-8.55886101314233e-07
-7.28358064197126e-07
1.4339732557355e-07
1.25435350879116e-06
1.11698405732536e-06
1.59000214788315e-06
2.60361154109178e-06
2.9734509017766e-06
3.87160648643203e-06
3.15179667819497e-06
4.66404127818126e-07
-2.96546841131191e-07
-6.12383451422569e-07
-2.51295627398122e-06
-3.7576229525513e-06
-3.09679838317086e-06
-1.64120135346528e-06
-9.11233062280913e-08
6.67779617270781e-07
6.46127801486599e-07
1.89444238057141e-06
2.63815385371087e-06
1.08015084194908e-06
-5.14081928054413e-07
-9.53849397780202e-07
-5.86241343202494e-07
-2.31852531455296e-07
-7.24377845242811e-07
-1.66038922377759e-06
-2.59215229438715e-06
-3.03400720450019e-06
-3.03505780775049e-06
-2.86591361008374e-06
-1.64898292996195e-06
-4.06016889976545e-08
2.55919731466986e-06
4.36031466259745e-06
3.94139279479697e-06
5.33831372630564e-06
4.40363848716083e-06
9.40548267245555e-07
9.58509244403362e-07
2.2611113336111e-06
1.82728770973803e-06
-1.31799307009253e-06
-3.51046833282731e-06
-3.46971059241457e-06
-2.88668002001908e-06
-1.94645112530289e-06
-1.10344060713405e-06
6.38174020209373e-07
2.74797769580433e-06
3.73819807456324e-06
2.48095680907946e-06
4.19922002527944e-07
-1.3713565503159e-06
-2.28565250918252e-06
-2.16972759213738e-06
-2.09190621896666e-06
-1.71010553649015e-06
-9.20405944300571e-07
-1.27099295811254e-09
-1.15122548388243e-07
-1.05778052366514e-06
-1.16240925241667e-06
-4.29287807684097e-07
1.44522270785451e-07
4.34502119061331e-07
2.88848518798897e-07
-7.08321906609469e-08
-1.92853172462192e-07
-5.22826647376035e-07
-5.15128527026853e-07
-1.80494612604472e-07
7.75242357254289e-08
2.92733642641388e-07
2.75790255755304e-07
7.57981033782397e-07
1.31351772436912e-06
1.48437127024932e-06
1.60369758841234e-06
1.080845847861e-06
3.40380107057197e-07
3.24774155140448e-07
3.74009474303907e-07
2.23579285256213e-07
3.8199990819036e-07
1.55174312043804e-07
-4.7547164185312e-07
-6.48958642619024e-07
-1.34793403707278e-07
2.96467618131271e-07
1.93279846651864e-07
7.94706739351592e-08
-1.71897720482382e-07
-2.11522469833607e-07
-7.26655434245338e-08
-3.60892031603823e-07
-4.55921885149457e-07
-1.11435098763749e-07
1.48109596872177e-07
-1.17485259986359e-07
-3.81888017489174e-07
-4.41244061098442e-07
-7.03657065308773e-07
-1.1734164599351e-06
-1.46581763940943e-06
-1.25646913508664e-06
-9.24962899016105e-07
-1.00930106880506e-07
1.03363617542887e-06
3.03113907145901e-06
4.32219745530941e-06
2.27752843601304e-06
7.97966941370319e-08
-7.08714241074866e-07
-8.18321607552529e-07
-7.80384895646847e-07
-8.70188570252062e-07
-5.22520092559407e-07
-5.72622948203752e-07
-1.63940222556559e-07
2.73117867452934e-07
-6.17503391221932e-07
-1.55105481236323e-06
-1.17848111885537e-06
3.73579701337164e-07
9.81650142834362e-07
5.10430346245163e-07
7.03905915573849e-07
8.7705303322488e-07
1.06086108013511e-06
1.69056146558682e-06
7.65357023600494e-07
-2.04566534117757e-07
-1.03335046539531e-07
-9.34742465977212e-07
-1.29831827610777e-06
-1.34415808785948e-06
-1.51630191882663e-06
-1.39665462160305e-06
-1.49396438744744e-06
-1.23884877706195e-06
-1.3004797285322e-06
-1.49517565945045e-06
-1.02541584977439e-06
2.99073718341608e-07
1.26246883944609e-06
8.58840992402322e-07
8.10802226023767e-07
1.61077715757221e-06
2.5137131449016e-06
2.10987671666666e-06
8.05527339176523e-07
1.23949228586697e-06
1.18477000279101e-06
2.79748136584918e-07
3.3324837111459e-07
-3.2131006170215e-07
-8.59612309921524e-07
-1.01353894077453e-06
-1.3319127506203e-06
-1.40587317502396e-06
-1.08296819573991e-06
-7.04355674752643e-07
-8.70326628914887e-07
-5.7590388459657e-07
9.76267438800055e-07
1.47135270543693e-06
-1.04319301382513e-07
-5.45910252040496e-08
1.49183305700979e-06
1.82983447080839e-06
9.96992771549235e-07
2.37682138947732e-07
5.74394884355557e-08
-3.61894618623286e-07
-5.90751415508209e-07
-6.94482710547037e-07
-6.87641930631098e-07
-3.20547497412283e-07
-1.34009891612512e-08
1.72620511231916e-07
-9.09947332029289e-08
-2.32792731932991e-07
-2.45448990383263e-07
-4.14437980336016e-07
-7.86914217078853e-07
-1.12237219282038e-06
-1.10345135197132e-07
6.77382788708109e-07
-1.05008289844789e-07
-7.13372793653828e-07
-8.67513059287913e-07
-5.19954329897648e-07
-6.56663585582121e-08
-2.35615616732221e-07
-8.09257979061965e-09
5.15057294953124e-07
1.18336116335268e-06
2.00588993573909e-06
1.88691564859979e-06
1.00732286228582e-06
3.93265525296325e-07
-6.43945082875316e-07
-2.00042606630138e-06
-1.91591365511633e-06
-1.3064891556172e-06
-1.25996741448587e-06
-1.70546860896477e-07
3.22213771486201e-06
6.78162941435691e-06
5.05505708297446e-06
2.92594912660515e-07
-1.34864758592931e-06
-2.02660809293364e-06
-1.996668909466e-06
-1.25230944284228e-06
-1.14802054379114e-06
-1.11790422604485e-06
-1.0906093296521e-06
-6.67403128453418e-07
-9.11020324754796e-07
-1.39659321993225e-06
-1.44636911698404e-06
-4.72083111707852e-07
2.2632821521552e-07
-1.03615791715314e-09
2.24952698170917e-07
1.15739067373108e-07
-1.78234766293769e-07
-2.74795802683234e-07
-3.88432631824922e-07
-3.66383281837822e-07
-2.21580426754566e-07
-2.1304341283639e-07
1.55744603373941e-07
5.08141137270446e-07
7.44881311335354e-07
9.07348507023318e-07
3.88950080968182e-07
2.32254453782245e-07
8.07513117729353e-07
1.15877383749072e-06
6.13372238697915e-07
2.24099119761627e-08
8.12967985266866e-08
8.96134822083208e-07
1.90782430998934e-06
9.02033776482807e-07
-4.49129985596552e-07
-4.83629850855407e-07
-1.09038415295132e-06
-1.23858555079799e-06
-1.0325742059643e-06
-9.22620907661881e-07
-4.52726408528663e-07
1.38554462736303e-08
4.53833932935576e-07
4.40778701375781e-07
6.52035608225873e-07
3.9906636879745e-07
-1.16457015381934e-07
-4.32195423813657e-07
-6.57561349074532e-07
-5.3578000727687e-07
-4.84085794208491e-07
1.55425850615164e-07
1.53442876066946e-06
2.65751140606726e-06
1.89390218556455e-06
5.80677771943431e-08
-1.16548286407841e-06
-1.21515385852499e-06
-4.17525485801047e-07
-3.0599556279533e-07
-9.59188746030678e-07
-1.35073010299469e-06
-9.34726700260392e-07
-6.40388724342356e-07
-5.87106930605613e-07
2.45454702029412e-09
6.81394375835145e-07
5.14642847581261e-07
-1.59573710292212e-07
-1.73667487478149e-07
-1.26181256012642e-07
-9.59833904417265e-08
2.36271414970417e-07
1.32968476614069e-07
2.35352763511161e-07
1.20396742772414e-06
2.11016974046572e-06
1.38257409212544e-06
-2.88417883435649e-07
-6.69935042381532e-07
-7.42884136557559e-07
-6.28133773536238e-07
1.98817420476152e-08
-7.70276372844316e-09
-2.22214569251041e-07
-4.14148941713532e-08
5.66342429162469e-07
6.22432253771538e-07
-1.9957670780846e-07
-9.28672438845884e-07
-1.0677182955281e-06
-1.3606657062172e-06
-1.87367158799753e-06
-1.77906737684923e-06
-1.13389273695551e-06
-6.1669385071819e-07
-2.01772225393086e-07
8.90091946805807e-07
2.49628551652724e-06
3.50737115354695e-06
2.33640021997111e-06
1.66427756062157e-06
1.91115745221343e-06
9.89839169457272e-07
3.6486188881513e-07
-4.50364805793606e-07
-7.62152622792729e-07
-9.15202664868302e-07
-1.28806674960818e-06
-1.39635117649436e-06
-1.52332332608812e-06
-9.65849600245791e-07
-4.23950203035504e-07
-2.88113283387912e-08
-2.1409489613405e-07
-4.76418828489638e-07
-8.87446411171945e-07
-1.02343868317228e-06
-4.11412024517495e-07
-5.06798842018337e-07
3.62828767363737e-08
9.98519997547071e-07
1.20843013957317e-06
8.24200157848343e-07
4.85037076780421e-07
6.04047060368959e-07
1.31363521614379e-07
1.10013208438695e-07
6.84231267248424e-07
4.08653303888742e-07
-2.60181116059117e-07
-3.98589330011757e-07
4.92720240131822e-08
-1.36305394726674e-07
-6.56511033521199e-07
3.33232862064034e-08
6.10434395328322e-07
9.63216111355472e-08
2.833041143367e-07
4.19447285678946e-07
-4.25224278869734e-07
-5.65111494646015e-07
-2.96561402512242e-07
3.58296436981956e-07
1.85141034929891e-06
2.05519044152455e-06
6.87913221112741e-07
-4.61473643052172e-07
-1.08439530315042e-06
-1.02504274466794e-06
-9.51755467299261e-07
-1.18264299086379e-06
-8.6159989362181e-07
-2.07638296822057e-07
-4.78208559424905e-07
-1.77769826097731e-06
-2.05855962039199e-06
-9.12423027558079e-07
4.98093398144909e-07
9.28811844597341e-07
1.01424566052923e-06
1.12310221097868e-06
1.34466504214645e-06
1.74401142904005e-06
9.80827614661116e-07
8.04434638370133e-07
1.06224438760392e-06
8.03894356426451e-07
4.49106471230052e-07
-7.09440879432514e-08
-4.83288563093163e-07
-6.38026576917917e-07
-6.39334039821205e-07
-8.61778009888937e-07
-1.0871943993269e-06
-1.41509902739649e-06
-1.05151478540902e-06
-7.1989416165196e-07
-8.52563830237589e-07
-4.25824358331877e-07
-1.07424077317326e-07
-1.67441416401299e-07
-1.617999616001e-07
-1.5442327354904e-08
6.12121956223131e-08
2.26954073916942e-07
5.96204548102785e-07
1.08897074003172e-06
1.59550779438603e-06
1.42014974628721e-06
1.01199962121435e-06
6.00821524308151e-07
-2.71633672728622e-07
-3.14485595060557e-07
-9.38688215727566e-08
1.06399467439909e-07
9.78866961970977e-07
1.24242766040261e-06
1.74731791497951e-08
-8.96951159045689e-07
-7.73531632979305e-07
-7.14995996441322e-07
-5.71914501366325e-07
1.01492752105135e-07
2.24935287379044e-06
1.98966784058359e-06
4.09685651414387e-08
-3.99602380243151e-07
-1.27573750843174e-06
-1.73365610863234e-06
-2.2729752146555e-06
-1.31002718388162e-06
1.85969235888825e-07
-2.32114255470701e-07
-6.91606668399283e-07
-9.3129371778595e-07
-6.48394577137931e-07
-6.06008855154182e-07
-5.97833180585709e-07
-5.15320868466091e-07
-7.20963317630737e-07
-1.58352953472838e-07
8.24955868328238e-07
1.4661787413133e-06
1.08855233715222e-06
8.37867117864404e-07
6.85250097027024e-07
4.21587572611456e-07
7.63319919373642e-07
9.01308369448923e-07
1.17452974883854e-06
6.00241057571156e-07
-9.51235904648165e-07
-1.80023730383233e-06
-1.62670298232706e-06
-1.54935230933378e-06
-1.62147578476069e-06
-4.88296188992844e-07
1.65716879691932e-06
3.22379667906993e-06
3.40139762424352e-06
3.23948095469822e-06
1.76250524028039e-06
1.31026742809051e-08
-5.0707229424866e-07
-8.589473477957e-07
-8.53366546811495e-07
-1.49617370702769e-06
-8.26966257067771e-07
7.08611385090414e-07
-6.18318063211326e-08
-9.98723101386211e-07
-6.8311134754954e-07
-6.25256978176328e-07
-1.08687679769639e-06
-9.6405644028809e-07
-1.12338165710096e-06
-1.10763020219345e-06
-3.03565660469041e-07
1.52337993817487e-07
2.13547574780665e-08
-2.06787661858613e-07
1.86884429661235e-08
-3.96700845944813e-07
-7.1576420050775e-07
-1.9341275922708e-09
2.05101163104967e-07
2.84842837250027e-07
1.47909143651243e-06
2.76784237001584e-06
1.96381374127375e-06
-3.88124370215265e-07
-1.26099363042541e-06
-1.28746872101818e-06
-6.55468963451857e-07
9.60926404126161e-07
1.58277029537451e-06
1.21253188201531e-06
6.68818229160774e-07
1.86580798370824e-06
1.06882619002942e-06
-1.53573872162949e-06
-8.97348738060382e-07
-9.6450542469625e-08
-6.29502737505776e-07
-1.48627737131128e-06
-1.16245428830629e-06
-7.74113565835075e-07
-5.97558774735966e-07
3.55795016830793e-07
-9.09016726527633e-08
-1.03980623256775e-06
-1.30866947532837e-06
-1.34489918890708e-06
-1.23291109352585e-06
-1.24058587467739e-06
-6.55361791504224e-07
1.22477904752788e-06
1.24528776186739e-06
1.00130238801807e-06
3.21073566650891e-06
2.81950182606706e-06
3.38565183029105e-07
-1.34125000053337e-07
-3.64889122964054e-08
-4.74231429526264e-07
-9.47028036224499e-07
-9.14529351838229e-07
-5.42806779464053e-08
9.40946937964053e-08
3.54750310612336e-07
8.72346812324675e-07
2.86825181625304e-08
-9.19865069113117e-07
-6.34956303451371e-07
8.17327877414754e-07
7.30271562286785e-07
-1.33056723525121e-07
3.03795566771822e-07
5.66945341123224e-07
8.34699473630821e-07
5.47295263901858e-08
-1.72245448423047e-06
-2.07700774367544e-06
-6.84430300024422e-07
5.74371134117762e-07
1.11250993294201e-06
1.3188409615114e-06
-9.54577437081482e-08
-1.191560293109e-06
-1.03246446054137e-06
-7.19900801065198e-07
2.6076431891992e-08
3.7941538136416e-07
7.07375370304016e-08
4.89898433040355e-08
1.69208620150527e-06
2.94790431315367e-06
1.98513366616528e-06
3.93643148515219e-09
-1.35153028750357e-06
-6.16841885519541e-07
-4.1662247404628e-07
-9.33592263300179e-07
-8.30956517312006e-07
-1.45027475114279e-06
-1.52092231451891e-06
-1.31691908048351e-06
-6.78345999947736e-07
5.83074424819197e-07
1.37059994610624e-06
1.81333815221081e-06
9.23889861135488e-07
-8.75480389714067e-07
-1.68024697131877e-06
-1.13951982930857e-06
-1.23096866754705e-06
-9.54858420768164e-07
7.92679779024444e-07
2.29732718538823e-06
2.444358152726e-06
1.11829553770514e-06
-1.40336442564691e-07
-6.54167298377487e-07
-4.61806783925061e-07
-1.05322830543054e-06
-1.62083342614773e-06
-4.40326636956886e-07
6.48806192619715e-07
1.36523732997983e-06
1.86681392170235e-06
1.38875850277148e-06
1.69376774772092e-07
-3.77312669996731e-08
3.84748940990649e-07
-1.31838383930302e-07
-7.46527852269552e-07
-9.41828368704101e-07
-9.22472093997134e-07
-9.91644566730186e-07
-8.68633991174366e-07
-1.08132655464641e-06
-1.02374035212921e-06
3.68257640675901e-07
1.0432134242972e-06
7.10726558061821e-07
4.84464932824735e-07
1.32207506944436e-06
2.40887278161224e-06
1.15669489343375e-06
2.43512421677226e-07
6.37251215805462e-07
-2.47177645743768e-07
-8.893900812686e-07
-1.12145386930449e-06
-1.16652581136034e-06
-8.77999745013919e-07
-8.91365294311282e-07
-1.44733553193091e-06
-2.83845553779135e-06
-2.51669068492465e-06
-6.02073758181368e-07
-2.77397246563434e-07
-5.83689271573387e-07
6.71631591920856e-07
8.2694619150537e-07
6.25283882659149e-08
1.99922838124411e-06
3.28298446955169e-06
2.55135036821602e-06
3.08721323142527e-06
3.93325762791403e-06
2.73579731430356e-06
4.85024939266291e-07
-1.21997163068712e-07
-3.43438051422486e-07
-1.77128241561095e-06
-2.14472258782724e-06
-1.48337117368169e-06
-1.49687544175978e-06
-1.86501163309094e-06
-2.19196492395978e-06
-1.76237629803587e-06
-3.78501557230251e-07
2.62865873699284e-07
2.01653247932042e-07
2.96925646083216e-07
1.217892705252e-06
1.58676912281114e-06
1.99348238942914e-07
-5.71355463479064e-07
-9.98445227288979e-07
-7.87942351755228e-07
3.20591695551666e-07
8.98341493356621e-07
3.08258742692228e-07
-9.79476859436651e-07
-9.94441767630954e-07
-4.06920091518903e-07
-1.65772160261415e-07
-4.87442921359301e-07
-8.5032040886701e-07
-8.11133074403799e-07
-7.13086468555958e-07
-9.49468287972299e-07
-1.68392738127997e-06
-5.78465747953653e-07
1.58418612517502e-06
1.64572104658217e-06
1.41047868300958e-06
2.73585660297317e-06
2.41396180865957e-06
5.43497717997542e-07
4.38092620142003e-07
4.27449658303282e-07
-6.19384825325301e-07
-9.7612173825975e-07
3.74975610655211e-07
2.30843077129009e-06
1.69139338747324e-06
-4.23802966520087e-07
-9.65440078467103e-07
-1.50345396921859e-06
-2.10135902888276e-06
-1.75851585812561e-06
-1.00238864593475e-06
2.3062515717369e-07
1.42936318458337e-06
1.80187076839246e-06
1.50170359811674e-06
1.1470909885998e-06
-9.00270981175469e-07
-1.64413500264438e-06
-1.17825807312923e-07
-2.18430516246454e-08
-4.72548702668417e-07
-7.88301788376489e-07
-9.24695213215479e-07
-6.47542317606061e-07
-1.00627100266975e-07
-3.51499274658641e-07
-1.53411875761071e-06
-1.09431675014038e-06
5.5333198910501e-07
6.57377911951695e-07
1.18453288790227e-06
2.32207828200231e-06
2.67967473256868e-06
2.02755688315897e-06
-6.53065927378749e-07
-2.4560858284425e-06
-2.40826718546485e-06
-2.0529797317594e-06
-1.46293495827067e-06
1.56977905679317e-08
1.94473931171422e-06
2.51285750944998e-06
2.02378959196174e-06
8.61729896154516e-07
-2.77902137761599e-09
7.77364755388957e-07
9.28707169023955e-07
-9.34906306028655e-08
-4.28550304538985e-07
-5.16648848534074e-07
-4.22707999316788e-07
-8.13654938347964e-07
-1.81550862129719e-06
-1.37732539377781e-06
-8.95754484680792e-07
-5.25225998514065e-07
5.29998744666917e-07
4.06930914263827e-07
-5.45172237992706e-07
-8.92212637124136e-07
-5.20546807420997e-07
-3.5860309037805e-07
-1.06680683433633e-07
-7.47907392999696e-08
1.98203764845052e-07
2.03893020628563e-07
-6.56676286340929e-07
-8.87382349291237e-08
4.39755444809334e-07
6.73225239191009e-07
1.46666832563553e-06
1.24301361501349e-06
3.62585414733448e-07
-2.27972743278554e-07
-6.40925152613003e-07
-7.14083597811084e-07
1.58399988084976e-08
5.07169342097936e-07
2.87715915283969e-07
2.55649024488486e-07
2.9692107789284e-07
6.4756707668876e-07
7.2057216065222e-07
-2.55973026093928e-07
-4.09982824489577e-07
4.78791850381044e-08
-3.71512510328124e-07
-5.33839547269263e-07
-1.09442267439616e-07
7.60353356898679e-07
2.06916011443198e-06
1.54702761061174e-06
-3.96027181870118e-07
-1.08053388455889e-06
-7.68801531036059e-07
-3.85714977854157e-07
-3.07761311097873e-07
8.91189396805532e-08
1.41981738577127e-06
1.58772959505507e-06
3.90781847010075e-07
-5.45095953914857e-07
-1.11870483878693e-06
-6.96827679697641e-07
-5.45566643384527e-07
-9.21923902907076e-07
-1.1610720800669e-06
-1.13824085594385e-06
-5.7999898132613e-07
-1.88939636824517e-07
-1.49471000924692e-07
-3.26632636336287e-07
-4.37983387402227e-08
-8.05965452360452e-08
-5.49311539521277e-07
-8.06063984485524e-07
-4.0995088554366e-07
-5.08069259350867e-08
1.09007762512162e-07
-4.10063026215328e-08
-6.59361837823064e-07
-7.04570785844713e-08
1.69742483424863e-07
5.38290359148847e-07
1.4503573641145e-06
1.54998301294463e-06
1.78230495112241e-06
2.12584507379705e-06
2.19800993618408e-06
1.73681133782144e-06
6.78623892890953e-07
-5.07705605590796e-07
-9.34567560043032e-07
-7.9998740098855e-07
-7.62654079327992e-07
-9.95728039654525e-07
-1.2714945035587e-06
-6.99899290983172e-07
-1.25333728980425e-07
-4.6934793863963e-07
-1.70520568790355e-07
6.56265014235433e-07
2.47673937043162e-07
-5.19028450492371e-07
-8.10181256699823e-07
-1.05425282863559e-06
-8.74249739963347e-07
-4.33178826907516e-07
-2.37837785272107e-07
-7.83159794081075e-08
2.51890542501802e-08
4.60905304827233e-07
1.39299629388248e-06
1.25139425175618e-06
1.69419133303084e-07
-2.81367313560742e-07
-3.06700477378126e-07
7.14346807524747e-09
3.27624870540258e-07
5.57769767420864e-07
9.62247557305584e-07
3.87623180142629e-07
-3.27432490794203e-08
2.64286493426019e-08
-8.33995233346418e-07
-1.39008561081695e-06
-1.01608922632873e-06
-3.95917442044364e-07
-1.67804712236842e-07
-3.82342421657985e-08
2.50662666012423e-07
2.9271651047565e-07
1.01013434925336e-08
-1.65198040184334e-07
-1.18849515288724e-07
-2.63453488178507e-07
1.91895705497804e-07
1.14355727261728e-06
1.12009565143266e-06
7.36973251056489e-08
-4.8607999354085e-07
-3.0492024051855e-07
-1.16565447441691e-07
-3.96002857734212e-08
1.53316184306066e-07
3.20548211938655e-07
5.20017414174352e-08
-1.14245958854041e-07
-3.500517201994e-07
-3.13284721700448e-07
1.84802269729713e-07
5.42885946491809e-07
7.44470732238272e-07
4.47640915232883e-08
-9.00761477809864e-07
-3.32916166140578e-07
1.06596994585716e-06
9.81100512262142e-07
-5.34273262562734e-07
-1.19067882807042e-06
-6.08971626992407e-07
-4.46618511123026e-08
-1.41101736850057e-08
-4.98019445031088e-07
-8.34793471305151e-07
-8.37056608114884e-07
-4.53429188124534e-07
-3.55714258857823e-07
-8.60875827900705e-07
-1.5124477679739e-07
5.26060625910022e-07
1.09146645623034e-06
3.22587714626664e-06
2.87424299629339e-06
9.76814408277258e-07
1.22899299438723e-06
9.51508675008448e-07
-8.68640489812326e-08
-5.11563016874116e-07
-1.26119796788321e-07
-1.87892600399354e-07
-9.39456328610548e-07
-1.2983821417335e-06
-9.64345144981712e-07
-4.9684539502703e-07
-1.06359380920365e-06
-6.66545702654156e-07
-1.72241209040444e-07
-4.6014280590656e-07
-4.73358755301994e-07
-7.2817626677001e-07
-1.07438350342672e-07
2.58453222089468e-07
-5.86076853128815e-07
-1.23595873634217e-06
-1.35667998628773e-06
-1.50138666501357e-06
-1.62566166110987e-06
-1.01181484871976e-06
-4.5923257418072e-07
-9.20552430759855e-08
1.4217241033714e-06
3.03046874627e-06
3.54524581517514e-06
3.33675661863564e-06
2.12791578175999e-06
5.97047615924501e-07
1.85493964752994e-08
2.54579833605366e-07
-2.59841833426479e-09
-7.79463548966106e-08
6.48803987526156e-07
1.08335457105292e-06
7.58935512705823e-07
-5.07448922321384e-07
-1.15684105181151e-06
-1.59162737932145e-06
-1.88956337054994e-06
-1.74091520808985e-06
-1.64139685557488e-06
-8.07465978078253e-07
-2.58849090319997e-07
3.27008259425952e-07
5.15207033666274e-07
-2.38096761550706e-08
-1.75485983908521e-09
-4.66165029102697e-07
-1.2967777463359e-06
-1.2535700497042e-06
-6.25301894904861e-07
5.9881130383222e-07
1.63260309302214e-06
1.7104637866841e-06
1.55474015724826e-06
1.09748037512029e-06
3.19242640590154e-07
-1.84956043908544e-07
-1.89934797695793e-07
-5.39351036452135e-07
-9.64861845300335e-07
-8.9216134115992e-07
-8.96520406681737e-07
-6.30105993574162e-07
3.90795775902536e-07
2.13089919472949e-06
2.62985106260658e-06
1.12797551962427e-06
-3.45472436150179e-08
-6.55330106752504e-07
-1.22862329598889e-06
-1.28757441234179e-06
-1.51023938668091e-06
-1.72082963761341e-06
-1.07751838091484e-06
-1.25699969765155e-07
4.66806144173767e-07
9.26696033294462e-07
1.27813367212795e-06
2.08912168495457e-06
2.01125411090435e-06
4.83618275599714e-07
1.43204772758315e-08
-7.96340049432726e-07
-1.94798266942346e-06
-1.59916537771084e-06
-1.24820879831023e-06
-1.19553128009765e-06
1.63263675436916e-09
2.52558537236641e-06
4.13129002116674e-06
2.96193450336378e-06
7.2545147898169e-07
-4.6543044863255e-07
-7.69413551064684e-07
-8.13677949769279e-07
-1.19301951086208e-06
-1.39674459214362e-06
-1.17318344066041e-06
-1.71469276669855e-06
-1.84073600304116e-06
-1.17832661168382e-06
-1.14252694879078e-06
-9.5811655966285e-07
-8.88245534242277e-07
-7.79161465475668e-07
-2.13217036394289e-07
1.74804905526455e-07
7.60369681319774e-07
1.94320630735296e-06
2.75733251839556e-06
2.19515376410432e-06
2.11798935741923e-06
1.66562975263425e-06
-5.95717943525364e-08
-7.71069137850668e-07
-5.96664354764811e-07
-7.8474703554183e-08
2.34290390121764e-08
-1.04399858610579e-06
-1.17145268683176e-06
3.83812530890331e-07
7.12800224403544e-07
-4.13185766220367e-07
-8.65318174407201e-07
-5.70705551074328e-07
3.18382590908166e-07
2.55843128954309e-07
-7.55332466602401e-07
-1.88356478044361e-07
3.55036665749147e-07
6.30975900323433e-07
9.07594195853735e-07
8.20993928056705e-07
3.07524543938353e-07
-1.08470096121267e-06
-5.94824650330473e-07
1.98162889899199e-07
-4.44899101524748e-07
-5.65551444101356e-07
1.42316693040497e-07
7.72539708410448e-07
7.77034057128669e-07
3.00490547738508e-07
-6.82767457803726e-07
-5.82852690026729e-08
1.03326759339715e-06
-7.03356211200904e-07
-2.24282038583532e-06
-2.01669221505938e-06
-1.74024800639495e-06
-1.18909382975545e-06
-3.32534708961442e-07
6.64428860567063e-07
2.6539156120509e-06
4.25368962599184e-06
3.01834689268908e-06
1.01916336006729e-06
-7.5041751631692e-07
-1.3518533747048e-06
-1.14418854383301e-06
-1.03441783390595e-06
-2.0390697525401e-07
-7.94462851506071e-07
-1.07758955542421e-06
-7.60133693387287e-07
-1.13812965640511e-06
-8.61691287681085e-07
-4.62701950176749e-07
-6.77318717291703e-08
5.80623770157514e-07
1.03877920901569e-06
1.03512390016057e-06
-2.83518307066898e-07
-9.79160133236242e-07
-5.82153274054918e-08
7.64367101172641e-08
3.86273755994963e-07
1.1033666680696e-06
1.43936293292802e-06
1.24057481181603e-06
1.51588786260891e-06
2.08366634640259e-06
1.61375758719043e-06
1.26760727878695e-06
1.09608070482904e-06
5.46524346585857e-07
-7.20150860128135e-07
-1.81258888653348e-06
-1.93284410016634e-06
-1.67575119587977e-06
-1.51237871688528e-06
-1.76518321750378e-06
-1.81191915799372e-06
-1.14763855280749e-06
-5.27446128783312e-07
6.21788364555223e-07
1.19322012564544e-06
-2.63006099075863e-08
-6.79915690720915e-07
-1.49880553779778e-06
-2.41463334381957e-06
-1.48118473905929e-06
-1.31100311213039e-07
-6.82541912776057e-08
4.79489269757036e-07
1.7173161825764e-06
1.08194066120189e-06
8.50492414020345e-07
1.90982222176842e-06
1.68114367269226e-06
5.27444793812934e-07
1.99637348005827e-09
1.20960134328306e-09
-8.25805776255539e-07
-1.44701112782917e-06
-1.61176621491577e-06
-2.75133928982244e-06
-2.21006694549153e-06
2.48696171460651e-06
6.53931358146091e-06
4.45623014671201e-06
1.32150016633385e-06
1.980997265969e-06
4.6656008956657e-06
5.46583941570895e-06
1.46826476526454e-06
-1.54332756386072e-06
-2.1329800832131e-06
-3.01392484226765e-06
-3.08515491007824e-06
-2.78589525299181e-06
-2.74204410070211e-06
-2.45410415794564e-06
-1.83394187884931e-06
-2.2121799204032e-06
-1.5022432913504e-06
-1.00290429884568e-06
-1.38914169036954e-06
-1.00933368194451e-06
-1.25461044882037e-06
-1.49332621887765e-06
-2.61436902962827e-06
-2.03994927804185e-06
-8.3096664882187e-08
1.33930213333742e-06
3.34120657417507e-06
2.59969944827952e-06
1.01113726432793e-06
7.25746774674789e-07
1.11966773996467e-07
1.42043434612737e-08
9.99795336925132e-07
2.04181801650726e-06
2.08708038635336e-06
1.729180759702e-06
9.03875368251054e-07
-2.76198153510526e-07
-6.21571894095568e-07
9.3970909123616e-08
7.94453526383977e-07
9.29433969082696e-07
4.89792826396149e-07
-1.28073401007413e-07
3.28424519745994e-07
5.02383975380972e-07
4.44001904277235e-08
-3.313453560278e-09
-7.34082821711137e-07
-9.43264253323607e-07
1.47157271785699e-07
1.42571590136785e-06
1.25328745561796e-06
-4.20099332468921e-08
-8.70310875422008e-07
-1.48680288024084e-06
-1.46398288231094e-06
-2.23111192011403e-06
-2.51347444173514e-06
-2.32308266799732e-06
-1.41270972622618e-06
1.2329287162292e-06
1.6384221700503e-06
1.31166946379217e-06
2.72221080832251e-07
-2.83813835194727e-07
1.37384582981826e-06
2.20814312166643e-06
3.39761904693102e-06
3.19051935673687e-06
3.51385860812515e-07
-1.45509624707072e-06
-1.54582025278738e-06
-1.60335804106594e-06
-2.26601944158929e-06
-3.07073658023153e-06
-2.99997822294829e-06
-1.76343277596512e-06
-6.4089480642727e-07
-5.40613626219204e-07
-3.36227143780205e-07
3.12283619376337e-07
1.64533482687093e-06
3.1224537382174e-06
2.32586309828615e-06
8.0628829489959e-07
-1.11835287860461e-07
1.20726339232891e-06
3.01895255381837e-06
2.3401139092899e-06
1.41388617993852e-06
-6.13443593665569e-07
-2.43635493531736e-06
-2.54863207439847e-06
-1.47735140768876e-06
3.52869438683553e-07
1.29830855070078e-06
1.05295512069879e-06
-5.49358047484712e-07
-2.15545829485349e-06
-1.74137231428582e-06
-9.11784226938665e-07
1.59002471583908e-08
1.51460544324241e-06
5.82977035814595e-08
-2.59078633021578e-06
-3.02794661208973e-06
-2.05955256266219e-06
-1.45250395517286e-06
-8.74200954751076e-07
5.87137719861403e-07
4.79521537297833e-07
-2.52791179068783e-07
-1.75367904051501e-07
1.13223688737983e-06
2.60326826434499e-06
1.85074024382054e-06
1.49267565252829e-06
2.66911866976754e-06
3.76923184861401e-06
3.3627561975992e-06
1.16066928105319e-06
-5.86819563651808e-07
-4.40191984574807e-08
7.57586676501708e-07
-8.649167711781e-07
-2.50606264997054e-06
-2.31533716897499e-06
-1.92471641167264e-06
-3.82362228453391e-07
1.60160948496607e-06
8.23210893658302e-07
4.63868384432998e-07
1.37657827490544e-06
9.6056883960389e-07
1.91700107986112e-07
-2.14595956664774e-07
7.35283594771098e-08
-2.27747946938301e-07
-7.68422360021373e-07
-1.85592627127517e-06
-2.16765117882697e-06
-1.12034889242756e-06
-2.01092619633565e-06
-2.42438254778163e-06
-2.58848418234047e-06
-2.2537338378317e-06
3.41908680120376e-07
1.0884114901617e-06
-6.85306404320921e-07
-3.32208846449332e-08
8.54011670633784e-07
4.47622315952957e-07
1.66061873656954e-06
1.913008159175e-06
1.93297674629991e-06
1.61076101019378e-06
2.01913128756517e-06
1.85364743606131e-06
-8.42997577269665e-07
-2.32058827526095e-06
-1.93402936888762e-06
-1.22577941784623e-07
6.54679340294569e-07
1.31443899873701e-06
2.2324539693095e-06
1.68383613106389e-06
1.17369053791072e-06
6.27342131691613e-07
-3.3474651167482e-09
-1.54670101894798e-06
-3.61805447986817e-06
-2.02243455569851e-06
5.90440606897478e-07
1.22371724346318e-06
6.69068716702319e-07
-2.4142474209338e-07
9.5969238047016e-07
8.10634156678248e-07
4.30715210647311e-10
-1.28436572598998e-06
-3.0623573039247e-06
-1.58925024024236e-06
1.71562545853047e-06
4.80915432489565e-06
3.08745798533904e-06
-7.7256389980828e-07
-2.39636539425127e-06
-2.60775885076588e-06
-1.43922953707845e-06
-2.35269972779033e-06
-3.47154752036378e-06
-5.2182187240539e-07
3.5152943490621e-06
4.7344038480251e-06
2.16629352329563e-06
-9.5930909804265e-08
-5.97886799939263e-07
-1.59406027839616e-06
-1.80702112670211e-06
-1.53558468116868e-06
-5.79253327664616e-07
-4.06822250647201e-07
-2.28002188439921e-06
-2.02815630287069e-06
-6.14665604953143e-07
2.48622058936995e-07
1.67531304625218e-06
3.647377593111e-06
4.31459740655154e-06
5.10229093886314e-07
-1.4564775603351e-06
8.03267215864562e-07
1.28928375580921e-06
-1.95021756728739e-07
-2.31608410409323e-07
1.08289353186428e-06
-4.8750831159842e-07
-2.51808301655255e-06
-3.06686471257453e-06
-2.3665669884806e-06
-7.32684160030329e-07
2.86514803123527e-07
2.12648964164772e-06
2.88036829235383e-06
2.53713641996702e-06
2.39412312038701e-06
8.475931434384e-07
-1.57940890222632e-06
-1.94803513472052e-06
-4.70451174130655e-07
2.08626212094195e-06
3.76373852954525e-06
1.29766090529208e-07
-2.84632200216375e-06
-2.24915903123585e-06
-2.58220145902074e-06
-2.65639893500134e-06
-2.00703867625574e-06
-1.21337668402705e-06
-2.17745778235705e-06
-3.67041240451613e-06
-8.52395597985664e-07
2.8896920451636e-06
4.19425819815958e-06
3.9136486275103e-06
3.25663947900091e-06
2.47753720352247e-06
-1.8954901700965e-07
-8.29346473939578e-07
2.08816325616649e-07
1.08316674267329e-06
3.51288725596999e-06
3.09954313969956e-06
5.85272281398085e-07
-1.82755331059015e-06
-2.46107213287598e-06
-1.18135996568177e-06
-5.24243476910016e-07
-6.58254140175037e-07
-2.43299010876492e-06
-1.81833448330184e-06
5.74558419762248e-07
7.68611563312819e-07
-6.38265574397564e-07
-3.01838376219335e-06
-3.72509725786092e-06
-3.71186169741666e-06
-2.79276419571367e-06
3.52128674750436e-07
1.955173329417e-06
1.45119447824877e-06
2.33289458773321e-06
7.56140867289097e-06
6.78337434835985e-06
1.05723502766825e-07
-2.64198175587005e-06
-3.05799347374095e-06
-4.43163137464761e-08
7.08439107806891e-07
-2.68323796396386e-07
-8.24670595394718e-07
-2.13809218591772e-06
-1.74880284857652e-06
-2.03994425907622e-06
-1.70881789297176e-06
-1.80804975512901e-06
-1.04529233688942e-06
1.21985525674322e-06
3.24239277061935e-07
-2.68537906068495e-06
-1.24207585312763e-06
5.16736002188221e-06
6.33167550875093e-06
4.20522998982883e-06
3.49031369987774e-06
1.89756735259267e-06
-1.90819945779942e-09
-4.24987531976448e-06
-6.68502143506466e-06
-3.39514518256584e-06
3.19157150452773e-06
7.21517215938531e-06
5.23705737754196e-06
5.40814345528237e-07
-5.18772135572957e-06
-9.03061173319189e-06
-8.33873413153554e-06
-2.12313285876656e-06
3.70081004392245e-06
1.11595729179892e-06
-6.87398282478356e-07
2.7978896947454e-06
4.25518410349204e-06
3.22590330886257e-06
-6.97713038975742e-07
-3.28002439892978e-06
-1.59081114372587e-06
2.6259388404495e-06
5.31401302582548e-06
1.86375034315642e-06
-1.97173478261647e-06
-3.53863795631448e-06
-3.99988576001101e-06
-2.39533655947097e-06
2.33868674437571e-06
4.69841177486303e-06
1.60430303484014e-06
1.00857837740475e-06
2.80624991476657e-06
2.38583328565298e-06
-2.36661618735602e-08
3.35797430837926e-08
1.67012897031552e-06
-1.06795585453693e-06
-4.5443133199972e-06
-5.48321613547583e-06
-4.84800524798431e-06
-2.93836783357738e-06
-2.74456838249942e-06
-2.82659911944673e-06
-3.7031894255519e-07
2.2061672101748e-06
2.94206946264397e-06
4.81832784061224e-06
5.73362985417533e-06
2.89498108026842e-06
-1.47959930087185e-06
-6.25033671477507e-06
-2.79086718228731e-06
3.7832885623074e-06
2.11001951899598e-06
-3.64755032775667e-07
1.78262115989255e-06
6.37551238939168e-07
-1.85236374565606e-06
-7.07419807972235e-07
-3.66548020666936e-06
-5.09310277923092e-06
-1.75863858340695e-06
2.35203025811988e-06
5.15195601595805e-06
7.16886524187438e-06
9.40242879462769e-06
6.52549082895413e-06
-1.96525988787492e-06
-6.99858635770888e-06
-4.17268181050746e-06
-3.99909949337162e-06
-1.86842482692426e-06
-8.23281621847999e-07
-3.68299699589386e-06
-8.36325940147923e-07
4.14867042399233e-06
2.93066991078461e-06
-5.64092831448553e-06
-6.21636363449747e-06
-1.92274263010446e-06
7.28960450832939e-07
6.01975568704865e-06
1.02256527447698e-05
7.48919792378947e-06
2.62622328946763e-06
1.01819687992587e-07
-1.94696585238291e-06
-2.24925895132945e-06
-5.22154765095492e-06
-3.72992839176759e-06
-1.02226829368829e-06
-4.31211551060171e-06
-3.32814347549358e-06
-9.36757346111471e-07
-2.90479601460683e-06
-3.32141717640065e-06
-2.37531895001644e-06
-2.15037573749989e-06
-2.43716365597058e-06
-5.15217468626092e-06
-4.17316095989791e-06
3.36099955772924e-06
1.41446093040285e-05
1.95554290890585e-05
1.91431200306575e-05
1.23027862904054e-05
-6.5625685684388e-07
-8.06439145902091e-06
-9.35632768711987e-06
-6.03822641619232e-06
-6.70849303065804e-06
-6.0714535231145e-06
-7.31641576127508e-07
-8.3989736011006e-07
-1.65610974632027e-06
-1.58495729012889e-06
-2.39895104471398e-06
-4.939546735104e-06
-3.27477763083326e-06
-1.38024054071638e-08
1.76087353298337e-06
3.90870679458079e-06
1.55433671488449e-06
-2.54040312767833e-06
-4.68463662359961e-06
-3.86910935790285e-06
-2.26898033921008e-06
2.75391299394562e-06
1.01722896756663e-05
1.08238888991823e-05
6.02148989088171e-06
1.87555567202113e-06
1.19018339866798e-06
3.11327526859657e-07
-2.13339064133035e-06
-2.49566464556918e-06
5.44876660664851e-07
3.94149082409839e-06
6.86658035386139e-07
-5.38287716682138e-06
-8.04746981383658e-06
-4.1117634266652e-06
-3.92428322706414e-07
-1.50581690471603e-06
-2.20216409127128e-07
-2.86050803467138e-06
-2.5152622310324e-06
3.67443224879199e-06
5.92822608782164e-06
4.49172088687608e-06
1.7740933882526e-06
-1.05183855683194e-06
-4.37284716705088e-06
-3.98239943212523e-06
-2.59028165141155e-06
-9.56387729536931e-07
2.15414583354206e-06
3.09333052904626e-06
-3.29577868919526e-06
-6.64265752961681e-06
-1.86247813212292e-06
1.46656592661042e-06
3.69493026798186e-06
2.34740075382726e-06
3.71872471197127e-06
1.05053566634596e-05
1.31180140247569e-05
4.0154120954885e-06
-5.50275096933451e-06
-7.67540891343225e-06
-8.78075353102703e-06
-6.4016469810907e-06
-4.75825465396767e-06
-2.10429120530347e-06
1.36517573375852e-07
3.66391657272838e-07
4.39785648517089e-06
6.20100401292643e-06
3.15798086914626e-06
4.49171399321499e-06
2.85219388328468e-06
-2.16811363019667e-06
-1.92033827214038e-06
-4.37872748413468e-06
-5.16353503242646e-07
2.70445801634635e-06
2.37768354472658e-06
1.94586933788123e-06
-5.32731248721952e-06
-7.48963568988251e-06
-4.11927535866533e-06
-4.04697094567346e-07
-3.83947641662682e-07
-2.59325094252618e-07
-2.55338041162193e-07
-3.4773617124986e-07
6.56236392048061e-06
1.15673215711976e-05
6.51867039634579e-06
-1.70522667778973e-06
-3.96225984732492e-07
1.21912524299353e-06
-5.55423986335313e-06
-5.02216908585528e-06
-2.3157051933224e-06
-7.41884227712256e-06
-1.05053664916519e-05
-3.57863454724059e-06
1.06620367490976e-05
1.19444054276299e-05
6.42138914185429e-06
8.2468087319121e-06
6.16022225762493e-06
6.72972401320016e-07
-3.23705136889878e-06
-5.22090105492828e-06
-7.28251924931896e-06
-9.74807420005992e-06
-1.08939424605024e-05
-7.56501411987355e-06
-4.08225658233099e-06
-3.08977487208664e-06
2.71485117800754e-06
7.5291014748518e-06
8.06278653206721e-06
5.17128045404232e-06
-7.06778429403585e-07
-2.55988205214584e-06
-1.19749627842223e-06
-2.60352300635426e-06
-1.10487792364549e-06
6.73539568349869e-06
1.1176895774375e-05
9.83148210059386e-06
6.84757819615205e-06
1.92141423719017e-06
-4.67517758614561e-06
-7.22897551998066e-06
-8.3563176120728e-06
-9.79628713904566e-06
-8.34469252133683e-06
-5.93975884222091e-06
-1.86764837435642e-06
9.26541979443824e-07
4.97535948453411e-06
8.72157487302653e-06
4.76189790254881e-06
2.56218082895204e-07
1.42984087997202e-06
2.84902333148991e-06
4.51435888324203e-06
4.79565882989421e-06
-6.12493327592775e-07
-1.71448500837162e-06
-7.75388012323023e-07
-2.05399055665949e-06
-1.91799294699145e-08
3.70751944969433e-06
5.3500387633059e-06
5.91787032158992e-06
2.07722363694495e-06
-6.14307994970826e-06
-7.71369420870373e-06
-7.9089029923322e-06
-1.19820095526681e-05
-1.51123494010407e-05
-1.31719547665451e-05
-6.71199103422119e-06
1.72569826121979e-06
1.07338235474078e-05
2.01873371608913e-05
2.70367410459591e-05
2.06942933765356e-05
6.96845612516583e-06
1.07602313724065e-06
-2.22727150883731e-06
-1.02687346210808e-05
-1.55621474310149e-05
-1.65675581708675e-05
-1.22631774556889e-05
-8.53441573794233e-06
-5.27114573499142e-06
4.84146081248237e-06
1.51375744918084e-05
1.8294116120714e-05
1.28629708228787e-05
2.74040148938348e-06
-4.37918396779023e-06
-1.3283687651367e-06
-2.55324536445619e-06
-9.25959779005807e-06
-1.21826551170051e-05
-1.2451993247109e-05
-2.78088622315651e-06
6.96214025190616e-06
1.38947547511455e-06
-8.57212909500756e-06
-7.18659729892138e-06
-1.05304492142437e-06
-1.90858352052173e-07
-1.68376486359227e-06
1.8079725254043e-06
1.13761551831322e-05
1.53329259676155e-05
8.80108299967067e-06
5.90993876112964e-06
3.23499567692773e-06
-2.5211490001908e-06
-5.77354417897244e-06
-6.58279163804144e-06
-2.72473552119326e-06
3.8556019241387e-07
3.4255165417862e-06
3.39357497375262e-06
3.19767263483979e-07
-1.18414904673356e-06
-2.26421095820949e-06
-2.70250310811676e-06
4.94852039938582e-07
4.49676381386109e-06
3.66433970944848e-06
2.22784828254564e-06
1.15412120082524e-06
-3.18159354695545e-06
-9.55976750130664e-06
-1.13641125718537e-05
-1.1173869510401e-05
-8.89025844185287e-06
-5.34656828500121e-06
-2.66842788913505e-06
4.44714202264233e-06
9.00629187831635e-06
9.90489018781286e-06
1.04432037575852e-05
1.22424125807223e-05
1.45514220548617e-05
1.0878058889612e-05
4.76166825856522e-06
-3.96756144070609e-07
-3.42076528115318e-06
-4.62245356552552e-06
-7.12678048308487e-06
-8.68705355417175e-06
-7.31466649063856e-06
-4.56206547727527e-06
-3.37244773922604e-06
-4.91557774214044e-06
-5.98824141072778e-06
-4.08541786567298e-06
-2.99536081410443e-07
4.51730360270692e-06
1.12172113681527e-05
1.13789726087597e-05
1.11138613147182e-06
-7.74450947156126e-06
-1.19375250471198e-05
-1.21082648140101e-05
-1.07364397972235e-05
-5.88449428714911e-06
6.91501698227923e-06
1.73879825161791e-05
2.21053039628054e-05
2.36070189415007e-05
1.53818245455382e-05
1.06522945934648e-06
-6.68941328038013e-06
-8.10657891061293e-06
-8.23550444161092e-06
-8.2792027467861e-06
-4.25633711072334e-06
-3.55593661092813e-06
-8.71085255702576e-06
-9.53796733399823e-06
-7.60671714063975e-06
-4.07360479032254e-06
-2.00076898237606e-06
1.84078958093914e-06
5.13514071708841e-06
3.17486304963676e-06
1.41873421383121e-06
5.35861078193856e-07
-3.97380361160733e-09
-3.02346994368333e-06
-5.380174616872e-06
-6.8733700370237e-06
-9.10102376664228e-06
-1.02316820643517e-05
-1.01365120184202e-05
-4.0281783622593e-06
9.36868220654233e-06
2.0442644834833e-05
2.31362058394522e-05
2.32358182466896e-05
2.53865643869374e-05
2.10769461699586e-05
6.15648154552377e-06
-2.0915858484512e-06
-4.8585614370914e-06
-9.04606578819485e-06
-1.19530534695745e-05
-1.45417584378173e-05
-1.40255172229907e-05
-1.36078351767328e-05
-1.03104967214432e-05
-3.50726565469968e-06
4.76408098165936e-06
9.66918349198405e-06
8.99384578323397e-06
4.53245769691879e-06
-3.79688488492246e-06
-6.68119116605633e-06
-6.38880075009451e-06
-5.94920889987028e-06
-3.37213454855946e-06
-1.97106980254956e-06
-2.43632786014267e-06
-3.42696584806772e-06
-1.91211091924893e-06
1.78426173584796e-07
-3.30921461598889e-08
-6.38865944576786e-08
1.26283831456196e-06
6.58615343870707e-07
-2.40540265698564e-06
-2.5166613081154e-06
-2.33352542439578e-06
-2.47151203033952e-06
1.21353435850495e-06
6.66725834951108e-06
1.29833789288843e-05
8.28498923259256e-06
-1.70322331827229e-06
1.31108408031591e-07
1.71559727766041e-06
2.45970224499923e-06
9.97761244692592e-06
1.39887246465244e-05
9.69378197703332e-06
7.72604750366816e-06
7.30818857720812e-06
2.9340998369072e-06
9.86378073749923e-08
-4.98614693793199e-06
-1.08204537482993e-05
-1.22937071873709e-05
-1.01965024144835e-05
-8.27298100615206e-06
-7.1598189910005e-06
-3.63031262612955e-06
-1.41417099901443e-06
-2.29598618394544e-06
-5.01495970763802e-06
-5.26761708978686e-06
-2.91061183943852e-06
-3.17252097916664e-06
-4.64529847199197e-06
-2.61354985097204e-06
3.28908471327768e-06
7.79484385322669e-06
6.8218958627659e-06
4.58699319245721e-06
4.12011934021206e-06
3.16991210817965e-06
-5.09558795242877e-07
-3.06137429058355e-06
-8.90298311253312e-07
1.35355076234988e-06
2.30508253758398e-06
2.87972102880492e-06
4.41289026395303e-06
1.38808493093589e-06
-3.44933560439903e-06
-3.49917824160411e-06
-4.62129819999973e-06
-3.36648303131312e-06
-1.44100705675654e-06
-1.82612979780556e-06
-9.73132165376214e-07
-3.57483331301834e-07
1.1825690300881e-06
3.21966999220648e-06
4.42425472503003e-06
6.53145804936574e-06
7.80400443251752e-06
6.70572093327538e-06
4.53104349672378e-06
1.32203753109668e-06
-2.97298956494947e-06
-6.1207702397694e-06
-5.20079251816622e-06
-1.41889105336781e-06
3.01180156259454e-06
1.35831445942109e-06
-2.58134193354314e-06
-2.13071513613594e-06
-2.91166386967721e-06
-1.9689779911917e-06
5.16012802577945e-07
2.73532765457162e-06
1.79702838830701e-06
-1.88903784623043e-06
-1.87584313267351e-06
-1.72537762134301e-06
-1.899104467153e-06
-2.14751240699445e-06
-3.23897953805274e-06
-4.19423560656812e-06
-4.00397259086396e-06
-1.1651350886978e-06
5.19645503518691e-07
2.47703915376578e-06
4.22285071155766e-06
9.56026359353653e-07
3.407435588098e-07
9.04870079729549e-07
3.29935308098243e-06
5.41205370417786e-06
-4.63991315305484e-07
-2.85851992267501e-06
-1.87482073315798e-06
1.08628683126638e-06
2.74103534266678e-06
6.91345177017111e-07
-2.02418205902052e-07
-1.00164779548418e-06
-1.84025459771388e-06
-4.6570411894183e-06
-3.17201386387783e-06
-2.73197504519305e-07
-2.51800404587201e-07
1.84413558242845e-06
4.18267707070888e-06
8.00324247313639e-06
7.30238286914264e-06
6.59447253467977e-08
-1.49811122036803e-06
-1.70603537970954e-06
-4.66035226576909e-06
-5.68271688229214e-06
-4.55414293329391e-06
-2.34737522878068e-06
-1.1195163738296e-06
8.25705077551892e-07
3.19898447745409e-06
5.96328483368996e-06
6.9230378002787e-06
7.30612233378569e-06
5.5949428598603e-06
-6.88243352243089e-07
-2.79529733183276e-06
-4.00176928484274e-06
-5.80672014042895e-06
-5.09193810409105e-06
-5.4849768926351e-06
-3.2184074571054e-06
2.22997737194882e-07
1.63731830565586e-07
-5.29963507221824e-07
-4.59889129905022e-07
-1.65939398272642e-07
9.97245377926179e-07
5.78286365032078e-06
7.08982521486157e-06
1.6007159755942e-06
5.22073127209257e-07
4.63680529778586e-07
-2.51499193062711e-06
-3.60035007693399e-06
-3.49061163114569e-06
-3.66362555463547e-06
-4.18301512398821e-06
-4.59856734194676e-06
-5.50206476731809e-06
-4.56901851643414e-06
-3.02637934660868e-06
-1.78109068277882e-06
3.1169381348111e-06
8.01037615186677e-06
6.16203830357731e-06
3.23738495245972e-06
7.37443871608887e-06
1.00028091474769e-05
5.22694748821655e-06
1.35404101282704e-06
1.18752302443494e-06
6.57842198150188e-08
-2.14607139810935e-06
-1.36058634708201e-06
7.86783250174173e-07
-7.78195307507999e-07
-3.35055795871056e-06
-4.10076038475673e-06
-3.89573432039911e-06
-2.66695179043607e-06
-1.6818166348872e-06
-1.02878952658614e-06
-1.96516665425284e-06
-3.1058249430361e-06
-3.33781740886898e-06
-3.76104673455265e-06
-1.3340492691145e-06
1.2738762509467e-06
2.4967475831349e-06
5.72870562998379e-06
8.26264570424018e-06
8.67480498135094e-06
7.11221626801388e-06
1.16525162409402e-06
-3.04817776365019e-06
-3.72499080539439e-06
-5.00400588570166e-06
-4.55510005373959e-06
-3.70301730790144e-06
-3.29814982824437e-06
-3.01014886600423e-06
-2.4821248218348e-06
-1.41054284789774e-06
-1.93923535121448e-07
1.08451396163761e-06
1.95249496696092e-06
3.24782601566491e-06
5.49277125284595e-06
5.50380024831132e-06
2.70503402306697e-06
3.07307767977321e-06
2.34377357159905e-06
-1.87422619825095e-06
-4.28300789806274e-06
-4.75849226030085e-06
-4.16759415178779e-06
-3.6347808370003e-06
-3.54919530384706e-06
-2.08373079327848e-06
1.63682146340533e-06
4.05652504231526e-06
3.47171124743265e-06
2.13048748219414e-06
1.84776409730308e-06
1.78713526614042e-06
3.32882572940241e-07
-9.74779167392909e-07
-1.04550045906604e-06
-7.13063093316694e-07
-1.16181899524669e-06
-2.6573251597391e-06
-2.18022054493209e-06
1.72415567666687e-07
1.42533402005203e-06
9.15515095388875e-07
8.26302364336251e-07
1.13006748312416e-06
5.93292251628569e-07
7.12567900642733e-07
-4.30221081361331e-07
-1.37285499766678e-06
-7.19310235537665e-07
-8.42487771247953e-07
-3.2564965706606e-06
-6.10050266949644e-06
-5.50103343383658e-06
-2.41718629688662e-06
-6.70554034504562e-08
2.31589133005809e-06
9.09532240496257e-06
9.91046670754045e-06
5.46786189764938e-06
5.08535720608885e-06
1.46048821368089e-06
-9.09562677569315e-07
-2.21792520329128e-06
-3.10301201388045e-06
-1.16269599656569e-06
-3.1736730475311e-07
-9.57778503503947e-07
-3.01244010725354e-06
-1.51431401136208e-06
-1.36570741462899e-07
-1.5750730618581e-06
-2.04844832850592e-06
-8.15400123318869e-07
4.00123655992238e-06
5.79907621970076e-06
-1.69445896483271e-07
-2.29205154037684e-06
-4.71933758197954e-07
-2.75505245783581e-07
-8.11346151208797e-07
-2.9902051140977e-06
-3.91838947579542e-06
-6.24619782771586e-06
-6.95914968212063e-06
-2.85795767464793e-06
3.35447668034494e-06
8.82541418653563e-06
1.00598808997064e-05
1.0428731789328e-05
6.44491893240222e-06
-6.57774832203848e-07
-3.09805375739919e-06
-3.62461744604511e-06
-3.53686337707805e-06
-2.64036306439417e-06
-2.60791133026274e-06
-3.62487059356463e-06
-4.95813337123726e-06
-4.63292777127541e-06
-2.18686713077263e-06
-1.20263884384623e-07
3.98788502014173e-06
6.1966614223626e-06
1.76123465195767e-06
9.47296361144168e-08
1.62156490734923e-06
1.62940259078373e-06
3.25759690630054e-07
-1.0287224563481e-06
-1.26228082084541e-06
-2.34181400406079e-06
-2.95148194904306e-06
-1.4732690308455e-06
-8.75169547374269e-07
-7.69750761090857e-07
-3.07911548145401e-07
1.219756237937e-06
4.47603872162946e-06
3.62356421777892e-06
5.72592878948605e-07
1.11972129909322e-06
1.48340715800865e-06
5.57630381149492e-07
9.41302012887355e-07
9.23126433491805e-07
1.53052536095167e-07
-1.3949910047717e-06
-2.27416255627914e-06
-1.38589050421767e-06
-1.59888265846307e-06
-1.43128752436972e-06
-1.02902967045963e-06
3.27614711684016e-08
2.19047116698316e-06
1.11590996644141e-07
-4.56917105252695e-06
-5.74242094148731e-06
-4.06987228704525e-06
-7.144386203903e-07
3.74009855155676e-06
8.36995488410827e-06
1.23913190020883e-05
1.11069792908035e-05
4.99970331124824e-06
-1.82262397729443e-06
-5.63841651553634e-06
-6.11232890899714e-06
-4.99473485345732e-06
-2.91686135087993e-06
-4.47831489593929e-07
1.18134816540342e-06
-3.40992926324376e-07
-5.4028968449219e-07
3.30736201054646e-07
6.81309212680249e-07
1.85127964067614e-07
-1.09456781202297e-06
-1.78254755532893e-06
-3.65869991395036e-06
-3.30362173423893e-06
-2.95338559680129e-06
-3.44959368753419e-06
-2.25863977578529e-06
-9.18770439046807e-07
-4.74196597112378e-07
-1.44686947989109e-06
-1.73517386704066e-06
-1.59521139624418e-06
-9.48147018652218e-07
-1.42327001884439e-08
1.69716780941601e-06
4.78761346324772e-06
6.79881065093182e-06
8.05142131528286e-06
8.08627639022318e-06
6.03429853577066e-06
3.76885752274478e-06
-6.20296509164668e-07
-4.00273762277486e-06
-3.03551306784039e-06
-3.92274313592011e-06
-3.48618590525886e-06
-4.16135026140795e-07
-9.95823968231877e-07
-1.59010410360886e-06
1.01014579980265e-06
3.26676409143415e-06
4.59937853917348e-06
3.25801773765659e-06
-8.61926097249882e-07
-3.8526723669816e-06
-5.92792875742356e-06
-6.72094828058396e-06
-5.33901562468264e-06
-4.26602613576436e-06
-2.4121768456235e-06
2.49923268771966e-06
8.55641359148146e-06
1.34715105155243e-05
1.04339906463305e-05
3.34716660669101e-06
-1.19071293610851e-06
-4.15275964480043e-06
-3.91475418451726e-06
-4.39023771789063e-06
-4.82068454972265e-06
-3.83969196783679e-06
-2.66273737112774e-06
-1.08555286636393e-06
-4.2324705571752e-07
-1.59911618501968e-06
-3.69696091511286e-06
-3.92410640592811e-06
-3.01979437796076e-06
-2.11629012907253e-06
-2.14453930122313e-06
-1.21470876126924e-06
2.63085063518741e-06
7.4072903605343e-06
8.95250686767032e-06
6.26172875690534e-06
1.65446125390642e-06
-1.40739830681645e-06
-4.50923205274625e-08
4.54688800812416e-07
8.01709509152546e-07
1.99179936737643e-06
2.72709761449932e-06
2.97743287467714e-06
1.04437811562694e-06
1.97749678885507e-07
-3.80349876713046e-07
4.24866624056124e-07
1.0604306776811e-06
-1.38349608077028e-06
-3.72032858545914e-06
-4.60360985653649e-06
-4.46130852874626e-06
-3.71016882957219e-06
-2.44741879335189e-06
-2.23172535449343e-06
-6.08804878567529e-07
8.78051247519545e-07
-1.7307575277339e-07
-5.11859492990074e-07
-6.06949106876578e-07
7.63125838823863e-07
3.64971032683409e-06
3.57007277229612e-06
1.63280126821494e-06
1.91153468286313e-06
1.57578679027944e-06
1.86427660927665e-06
3.83905182475743e-06
9.66666463142964e-07
-2.53455880424572e-06
-3.35863160453416e-06
-3.2863870143419e-06
-2.27820157475526e-06
-1.8819736332435e-06
-1.0093699434405e-06
-1.98143854917855e-06
-2.15650355344203e-06
9.55413103883905e-07
3.29536729073988e-06
2.90325658902789e-06
7.76276278878965e-07
4.16401351601229e-07
-9.40431440241585e-07
-2.54831101477478e-06
-2.73220776706684e-06
-2.73582067299731e-06
-2.69536103719224e-06
-1.64883197356821e-06
3.86536513755156e-06
7.94021626123814e-06
8.63183938488362e-06
8.54241169972581e-06
2.848116036818e-06
-2.7299552200271e-06
-7.42106117451592e-08
5.83628117320494e-07
-3.9895732304216e-06
-5.05272951020909e-06
-3.50724704440015e-06
-3.07074630814129e-06
-2.37348238958651e-06
-1.28239088215247e-06
-4.83345313519515e-07
-5.60738726711853e-07
-2.75603827406242e-06
-2.35661303501069e-06
4.05138785830752e-07
3.00626162289376e-06
2.4646806027533e-06
-6.82295078758025e-07
-2.71322017664766e-07
2.41521975436324e-08
-4.93405947949357e-07
8.75468002569535e-07
2.94860477483732e-06
1.86766751044309e-06
-6.61137605661562e-07
-1.36835043396874e-06
-2.10299611820582e-06
-1.38877972985104e-06
-1.65120097406521e-06
-2.45629475865087e-06
-4.96028528956744e-07
3.40644215320309e-06
4.40505308084396e-06
1.41697766457448e-06
1.48182243174786e-06
3.68889845219036e-06
5.43159426847143e-06
3.20160808488555e-06
-7.71146798384609e-07
-4.59713103854448e-07
-2.11554144768093e-06
-3.79694813127657e-06
-3.38678793868275e-06
-4.58120385057154e-06
-4.70178990117515e-06
-3.40904253828372e-06
-1.89764750920696e-06
-8.51976949035818e-07
9.44755951167701e-07
3.75757744204279e-06
3.57951712945592e-06
2.69391698343564e-06
2.21758048073663e-06
1.50760577261835e-06
3.27393764662609e-06
2.02373236572336e-06
-1.82274752738039e-06
-4.23281024352521e-06
-3.75338824934196e-06
-1.22248508787944e-06
-2.00920616230372e-06
-1.09618847175084e-06
6.26374633511468e-06
9.14921107300848e-06
4.71046381038335e-06
2.38525019099639e-06
-5.78657913380221e-07
-2.11528897275568e-06
-2.5981812952567e-06
-5.97947044479216e-06
-6.32069285933738e-06
-4.43908483107565e-06
-2.76597234742444e-06
-3.26929732375282e-06
-3.34198639576995e-06
-1.69233119687379e-06
-1.89792673855455e-06
-1.94748088956764e-06
4.52671949960422e-07
6.17778675795835e-06
1.17040427499155e-05
1.18043325227037e-05
7.68535202233496e-06
5.6506234535751e-07
-3.11527549265971e-06
-1.83401379343063e-06
-1.47975290548324e-06
-2.58307984874802e-06
-6.00426550995151e-06
-4.69301226735288e-06
6.59853710727675e-07
2.95198955824857e-07
-2.4541518855336e-06
-6.27618958673755e-07
8.91027349998247e-07
-8.8045430565725e-07
-2.00052041904781e-06
-2.04346505201125e-06
1.9710487589539e-06
4.02227636934931e-06
1.37494506387924e-06
-1.93291977389273e-06
-3.98880011053367e-06
-2.26245707502485e-06
-2.6541819628463e-06
-1.9678339496835e-06
2.29387135277514e-07
1.09592228198673e-06
2.460594055115e-06
1.88437259742757e-06
4.27603117727018e-06
5.93532507662787e-06
5.41096938535532e-06
5.85115050092817e-06
4.37765228284329e-06
3.80682957232745e-06
2.27604788946252e-06
1.12900525806219e-06
-6.87853159147425e-07
-5.19375223848882e-06
-7.21748726135544e-06
-7.69983969165614e-06
-7.20373424875723e-06
-7.26927832410819e-06
-6.24507531572011e-06
-4.04269298185492e-06
-1.44258418325693e-07
5.31295808565129e-06
7.57642725560917e-06
9.07483532185158e-06
6.47479116700056e-06
4.27941771823093e-06
3.30602634246038e-06
-3.04082926078011e-06
-8.38090587755765e-06
-9.69755524034521e-06
-7.36731562460386e-06
-3.63254005980477e-06
7.91008860149501e-07
4.46634707607335e-06
3.85702685406668e-06
9.98308802377488e-07
2.14549259063381e-06
5.50773708087874e-06
4.32059447544958e-06
5.5697647145498e-07
-3.53808985371431e-06
-3.88651830080375e-06
2.75589618809956e-06
5.53728536001733e-06
1.73496226477638e-06
8.90405124718769e-08
-2.28960811097747e-06
-6.01241278664103e-06
-7.36529825712574e-06
-5.54185064658149e-06
-2.3615727383623e-06
1.21170249897189e-06
4.06258536818637e-06
1.24497849452073e-06
-1.03826565805408e-06
3.34165098975003e-06
9.01360218993118e-06
1.12627706090799e-05
8.87629183266333e-06
2.22905265729617e-06
-3.72872532526489e-06
-5.45083320151103e-06
-5.21158645515525e-06
-3.0945506237362e-06
-1.87775549299589e-07
-6.61450047936077e-07
-1.46884721040648e-06
-2.19723755211908e-06
-5.61683377925054e-06
-3.92267072908026e-06
-6.01772006280465e-07
-2.12804130050793e-06
-2.00460757835381e-06
-1.19850278019273e-07
2.380911425253e-06
3.0653963409617e-06
8.16132478624164e-08
-3.08481579187509e-06
-5.19545829003113e-06
-2.91169173255454e-06
1.05665716824086e-06
1.83655761747585e-06
4.91407871235739e-07
1.24255118160625e-06
7.13248244003812e-06
8.63519378190938e-06
3.75756657343307e-06
1.63559791542851e-06
6.71932816549631e-07
-1.13349762676218e-06
-3.4987613227121e-06
-6.0558106142686e-06
-5.02633332202609e-06
-1.7399705376018e-06
1.8400409137139e-06
5.07048241754719e-06
5.53200988908259e-06
4.14245356671943e-06
2.26157047751292e-06
-8.45353562522224e-07
-1.52866235514514e-06
-1.01062906213717e-06
-1.8320651745736e-06
-1.36132828441844e-06
-1.21040687061069e-06
-2.30806438927511e-06
-2.5713365893201e-06
-4.07807931482058e-07
1.31069894101032e-06
-5.99461451370525e-07
-3.60587797658848e-06
-8.01963768629166e-07
2.88188593112889e-06
3.26928766343054e-06
2.53145789222677e-06
5.6570959649244e-07
2.73255254933957e-06
2.92158190712703e-06
-1.07210428320135e-06
-6.29314849116436e-06
-9.53991722253838e-06
-5.11360209976655e-06
-7.4056819984659e-07
2.094741151371e-06
6.98750250231391e-06
8.49796801627323e-06
4.32660272965337e-06
1.19897353579584e-06
6.91661459792075e-07
-8.5090609690871e-07
-2.1694213847838e-06
-2.35803408314419e-06
-1.61710233874243e-06
-1.13917230214076e-06
-9.09719660772953e-07
-4.80610449673086e-07
-5.09747609260363e-07
-1.90206867485092e-06
-3.78262538973279e-06
-3.86086867846035e-06
-2.48856976298878e-06
-7.04180865900301e-07
-1.12501624412016e-07
-2.92263093074799e-07
-1.89979128213553e-08
4.86952176876528e-07
-5.02806813939827e-07
-1.3693691608684e-06
1.10049623058748e-06
4.4125895510777e-06
3.66941700189425e-06
2.78978275126078e-06
4.70523650148004e-06
2.41591337679165e-06
3.34405850431643e-07
3.78912971392145e-07
2.20278828826162e-06
3.38376625766939e-06
-7.70217413784497e-07
-2.24810833664347e-06
-6.00208651556618e-08
3.51760711273524e-06
2.55759910126418e-06
-2.02068243631263e-06
-2.96785767435812e-06
-1.93003413660848e-06
-3.70381931862843e-07
4.19790459082963e-07
4.27026823400093e-07
-6.75608093451877e-07
-2.50902267285362e-06
-3.77578869975893e-06
-1.59028298364085e-06
9.01380991685607e-07
3.89425263813927e-07
-2.57087251225717e-07
-3.37202450904064e-07
-5.39361999733137e-07
-1.5155885070429e-06
-6.17621694983616e-07
-1.00548270050527e-06
-4.79858291562233e-06
-4.14573676959046e-06
-1.18296257409822e-06
-9.82896906754887e-07
-1.003052654133e-06
-1.06187392755975e-06
6.1623352478953e-07
1.0419961229491e-06
1.36642722584022e-06
4.82122322317102e-06
1.00720524766352e-05
1.24414563002313e-05
3.51070648663008e-06
-2.98091896908045e-06
-2.89738085829792e-06
-3.39592391063973e-06
-2.38203783159275e-06
-2.61885149048624e-06
-1.79093416907769e-06
-3.53075136602808e-07
1.25446451523738e-07
7.45369958094735e-07
1.17694101656243e-06
-3.08699298500153e-07
-3.12899512521905e-06
-4.72854776854637e-06
-4.36380564391535e-06
-3.33336680963069e-06
-2.47356263490452e-06
8.59423739763601e-07
7.92482295327674e-06
1.1209707920441e-05
3.6636357469325e-06
-2.34572233183877e-06
-1.68271086549884e-06
3.92896661995263e-07
1.23905102656741e-06
1.66205004351723e-06
4.10510124598552e-06
2.19669977074911e-06
-6.73367476011685e-07
-1.59229457270418e-07
2.4716795809356e-06
3.08768487996008e-06
-3.9447706208443e-07
-2.22597921242603e-06
-3.50183814186204e-06
-3.98039485212406e-06
-3.48516124566616e-06
-4.12284994820529e-06
-3.97286177990256e-06
-3.74261120016802e-06
-4.19726961124088e-06
-4.00549241949892e-06
-3.44315117710488e-06
-2.96507223585017e-06
-2.1900565383447e-06
-1.00828888508654e-06
-3.84014218907991e-07
4.30025868297854e-07
4.19446306380124e-06
7.67291639792117e-06
8.13787231854584e-06
7.3455508342332e-06
5.15795005169734e-06
2.88450489237609e-06
1.33401633740225e-06
3.3296752694674e-07
-8.52126700800809e-07
-2.92286732060707e-06
-4.06004215709881e-06
-3.53842160807707e-06
-2.57646060915083e-06
-2.11954749611523e-06
-2.38004948208879e-07
2.62261485112841e-06
4.75200746526831e-06
4.03447626709372e-06
-2.43558617777336e-07
-2.32306027083477e-06
-1.88551659326295e-06
2.97615554689463e-07
1.59260481956461e-06
1.27979127149066e-07
5.87023230128148e-07
8.79448753631844e-07
-2.94740178674131e-07
-9.65235832653255e-07
-4.89411271808664e-07
1.14227787814967e-07
-7.23747199910673e-07
-1.23956602367438e-06
-1.62850153297122e-06
-2.22027237819742e-06
-7.63001293779345e-07
1.37201691703611e-06
1.04388354576605e-06
-2.84674669903228e-07
-7.41963090368478e-07
-8.34664752245331e-07
-1.21231897245231e-07
-1.88274082783701e-07
-7.80968876953794e-07
-3.64765124239399e-07
-3.50165080383399e-08
-2.19954300782877e-07
-4.02116167751202e-07
-4.13935551706787e-07
-2.46454560579316e-07
4.37618834292879e-07
5.32510517494136e-07
4.7549627057849e-07
3.01318631888723e-08
4.58755656777125e-07
1.01270963307025e-06
9.59282719287748e-07
9.14619543445912e-07
-1.20107605225613e-06
-2.1508647611716e-06
-2.13506518837892e-06
-1.38282693241407e-06
8.25866678997649e-07
2.17652079327701e-06
2.19317539259309e-06
1.86719238415281e-06
1.51168590398045e-06
2.89474918585351e-07
-6.38360122730069e-07
-9.56800729753578e-07
-8.07559924055778e-08
1.80149532170075e-07
3.62974073047053e-08
8.22866747225553e-08
-2.28305315974909e-06
-3.28030757783988e-06
-3.38703871119445e-06
-4.9767850610947e-06
-3.82275306569056e-06
6.31843671065716e-07
8.66868608667339e-06
1.38683307086362e-05
9.78043162105801e-06
3.20407271783772e-06
5.59474680508939e-07
1.18427533518574e-06
-1.00101435376153e-06
-2.40555711603884e-06
-1.86214970004948e-06
-2.0606039671113e-06
-2.12148200322851e-06
-3.99653267901877e-06
-5.1078123303632e-06
-5.85802943224968e-06
-4.79425963823676e-06
-3.37004937630636e-06
-2.66392736149679e-06
2.8864422315892e-07
3.63763052620949e-06
3.70468796403796e-06
6.84244526723045e-07
-6.24699141927304e-07
-1.45277479611201e-06
-2.2991429609777e-06
-2.2258305558499e-06
-2.65675473226558e-06
-1.34945353843527e-06
3.57385932555235e-06
5.79685309730592e-06
4.11329378205277e-06
3.29805454783675e-06
2.19970264046991e-06
3.50475089143259e-06
4.59588429260505e-06
1.56097467823771e-06
-1.11342487900962e-06
-2.41118423974756e-06
-3.09689143099222e-06
-2.75239924298387e-06
-1.59711890963032e-06
-8.96922642933022e-07
-4.02038135009145e-07
-2.96764202442353e-07
3.92695501272452e-08
4.37291435005346e-07
3.5561123672886e-07
8.1566961066294e-07
3.15084260263327e-07
3.31221975496978e-09
2.30575493184143e-07
-2.31029600894047e-09
-2.86704834027003e-07
-5.20645343232088e-07
-7.14228608623375e-07
-1.13351983711075e-06
-1.01665039637514e-06
-5.34475646778049e-07
-2.39948667949703e-07
4.57918650079088e-09
-2.9341543071019e-08
-3.45115924545954e-07
-1.72248078972784e-07
-3.59113559216207e-07
-4.89738805726e-07
7.65981277075299e-08
-6.2894586874766e-08
-4.73833078127309e-08
2.290107681735e-07
7.40365867998088e-07
1.19256369950398e-06
1.05147650787397e-06
1.2268647424503e-06
1.13187707472558e-06
-1.12334596305664e-07
-2.40466978242294e-06
-3.89994630695382e-06
-4.09115771614428e-06
-4.93721938003705e-06
-3.58908575874575e-06
1.23272722444633e-06
4.9937823805897e-06
7.76370208237762e-06
7.98491301372487e-06
6.88694750482391e-06
8.21215210365131e-06
6.57026835633728e-06
2.44515795829584e-06
-7.28698376580392e-07
-3.94856049026533e-06
-4.96715780168799e-06
-2.91666833443286e-06
-2.59323777510676e-06
-4.29257920327387e-06
-3.81527016147229e-06
-3.18216969748304e-06
-4.61244487359935e-06
-5.37772274956574e-06
-3.71903590660813e-06
-2.04298571474891e-06
-1.2551590351156e-06
-4.85463000999654e-07
1.36251304467306e-06
2.53991645333203e-07
-2.4068155237554e-06
4.09624296240333e-07
3.45123689063375e-06
5.26790847679525e-06
4.23214701790202e-06
3.36683687799358e-06
4.57194426439396e-06
1.26108922133808e-06
8.69133355213687e-07
3.07582545068618e-06
2.03751788122758e-06
-4.40404784502725e-07
-2.16181242022234e-06
-2.51988478389566e-06
-2.54311468900801e-06
-1.89263535198361e-06
-2.1529459740121e-06
-2.5587956903708e-06
-2.80787786898249e-06
-3.23105127622251e-06
-2.48468945909208e-06
-1.98387409877967e-06
-1.83355642589292e-06
-1.30226040297979e-06
-6.39972550555465e-07
-8.42876489397198e-08
3.76404066204722e-07
1.79886521792845e-06
2.96603243605209e-06
2.41583813329781e-06
1.31236686908348e-06
9.02827908549198e-07
1.55343717465203e-06
2.41665406616406e-06
2.67598870305675e-06
1.86678615120045e-06
1.93499868131577e-06
3.42391298407343e-06
3.06817739571387e-06
1.1627608755893e-06
2.62408103151924e-07
1.08217214576786e-06
1.21810011450692e-06
-3.51125925689192e-07
-9.88687773937388e-07
-6.40722087219986e-07
-3.66004411235826e-07
-4.50575851456606e-07
-6.25608952798941e-07
-1.29321980480395e-06
-3.68124598822399e-06
-4.46515781959937e-06
-3.47941820990113e-06
-4.11681968842756e-06
-4.05317471862649e-06
-2.62682763605826e-06
-1.5126143199693e-06
-8.67630212766681e-07
2.83305316515587e-07
3.38311075694502e-06
5.79459583675532e-06
4.14279783915888e-06
1.71958150346676e-06
1.81218607182998e-06
1.22170817993689e-06
8.48872976723254e-08
-1.96331751402228e-07
-1.75360310596918e-07
-2.08364750201948e-07
-1.68319117230346e-06
-1.3743894391482e-06
1.46235971657052e-07
-9.04768134587915e-07
5.82400233674055e-07
4.62208162771739e-06
4.57289141399335e-06
1.0418587736236e-06
-2.15681584111999e-06
-1.94914516691156e-06
1.20042281136718e-06
2.98146057843091e-06
9.03180967508365e-08
-3.75597215545724e-06
-4.61974918375145e-06
-4.2599657147208e-06
-3.53612421907377e-06
-2.49271082585762e-06
-2.13058312146546e-06
-1.79597422252597e-06
-6.67958023124575e-07
-1.64967401845414e-06
-1.11428186801559e-06
2.30463828208675e-06
3.11488602048778e-06
3.99421517255097e-06
9.22894109140047e-06
1.02411383663424e-05
3.13263115374816e-06
-6.89148795704219e-07
-2.15429039905303e-06
-3.67072930168722e-06
-3.07734537893393e-06
-3.51969376679925e-06
-3.57428343026625e-06
-2.41143546304622e-06
-7.47718799214977e-07
7.23560685487837e-07
1.25257553765537e-06
5.84473663808203e-07
-1.37420283627687e-06
-3.18877697077989e-06
-4.03312903848788e-06
-4.11989886813401e-06
-3.37879990533241e-06
-1.71062972617757e-06
1.22630964277295e-06
5.8992900735283e-06
7.79927083801523e-06
5.51084840049431e-06
5.78203369573236e-06
5.46268900100235e-06
1.06842549020197e-06
-1.04978562419727e-06
7.94609575952113e-08
1.05141789777136e-06
3.42535834996236e-07
-2.65037191896581e-07
-1.42907540419457e-06
-3.38482586798087e-06
-3.07048054947051e-06
-1.68860814587265e-06
-1.28154951236678e-06
-1.17832474017982e-06
-9.1621828770896e-07
-1.62199646875121e-06
-3.09122632681651e-06
-4.38574960039422e-06
-4.28241386917388e-06
-3.39396207517138e-06
-2.4134690376867e-06
-1.95673498221725e-07
3.43352777451494e-06
7.48942470883838e-06
6.57633529225309e-06
1.85531408339749e-06
8.1974890238129e-07
8.82939265917896e-07
2.04429772790142e-07
1.22528303015952e-06
1.92463213479993e-06
1.24367486927172e-06
-1.06485907420183e-07
-9.04410310734098e-07
-7.28957785982856e-07
-8.59349601565211e-07
-2.07944565228284e-06
-1.70611053706638e-06
-9.2855444975623e-07
-1.64848687428596e-06
1.42804202714697e-07
2.25784023344368e-06
2.28772934790499e-06
1.52899950249249e-06
-1.26917206988623e-06
-3.59396249127656e-06
-2.96195736524963e-06
-1.66331569182751e-06
4.22934238264803e-07
1.73348037815043e-06
2.02267116324609e-06
3.21023746147548e-06
2.75835609840461e-06
1.481350402021e-06
-2.6338201639381e-07
-2.66257407752527e-06
-3.04769491007673e-06
-3.02481148272134e-06
-3.16902665362533e-06
-2.30793462207169e-06
-2.12027394800721e-06
-1.98288950478493e-06
1.37878660354128e-06
4.83378761609227e-06
4.3161447303047e-06
3.22589260688354e-06
2.94320309383108e-06
2.75976050151309e-06
7.31123228342822e-07
-2.16354809552369e-06
-2.75735668610387e-06
-2.22944164874898e-06
-1.84919403705007e-06
-2.23244222550416e-06
-3.12405743589228e-06
-3.74161904262912e-06
-3.62663082914889e-06
-5.64538976695587e-07
2.96895198156142e-06
3.25954551720845e-06
5.56354478435135e-06
6.89581102190159e-06
5.66757283414285e-06
6.18542209431459e-06
5.95661542969213e-06
2.62486587570654e-06
-1.24211859578894e-06
-3.03623253852841e-06
-5.7816422290022e-06
-6.2443503853513e-06
-4.092705908713e-06
-3.41852250829041e-06
-2.09813304475652e-06
8.87048309597078e-07
1.69529092349175e-06
6.79942652966843e-07
7.94062243042217e-07
4.92155705582945e-07
-7.61591611696822e-07
-3.40112141718397e-06
-4.81759628309191e-06
-4.96885480019483e-06
-4.5605971504553e-06
-1.77990195433375e-06
1.60823738310918e-08
8.80463567388564e-07
1.38324079044573e-06
6.48152841018746e-07
7.60235656037716e-07
1.84731280171091e-06
