Elapsed Time,Ch1,Ch2,BioRadio Event,
00:00:00,-0.00227352976799011,0.00317725539207459,0,
00:00:00.001,-0.00227230042219162,0.00317806005477905,0,
00:00:00.002,-0.00225734710693359,0.00317765772342682,0,
00:00:00.003,-0.0022406280040741,0.00317774713039398,0,
00:00:00.004,-0.00224567949771881,0.00317613780498505,0,
00:00:00.005,-0.0022529661655426,0.00317718833684921,0,
00:00:00.006,-0.00225582718849182,0.00318074226379395,0,
00:00:00.007,-0.00225631892681122,0.00318335741758347,0,
00:00:00.008,-0.0022571012377739,0.003183513879776,0,
00:00:00.009,-0.00225810706615448,0.00317908823490143,0,
00:00:00.01,-0.00225582718849182,0.00317441672086716,0,
00:00:00.011,-0.00225131213665009,0.00317470729351044,0,
00:00:00.012,-0.00224599242210388,0.00317591428756714,0,
00:00:00.013,-0.0022427961230278,0.00317560136318207,0,
00:00:00.014,-0.00223930925130844,0.00317533314228058,0,
00:00:00.015,-0.00224190205335617,0.00317830592393875,0,
00:00:00.016,-0.00224538892507553,0.00318145751953125,0,
00:00:00.017,-0.00224811583757401,0.00317616015672684,0,
00:00:00.018,-0.00225435197353363,0.00316793471574783,0,
00:00:00.019,-0.00226085633039474,0.00316527485847473,0,
00:00:00.02,-0.00226622074842453,0.00316744297742844,0,
00:00:00.021,-0.00227086991071701,0.00317412614822388,0,
00:00:00.022,-0.00226369500160217,0.00317743420600891,0,
00:00:00.023,-0.00225247442722321,0.00317204743623734,0,
00:00:00.024,-0.00223837047815323,0.0031697228550911,0,
00:00:00.025,-0.00223787873983383,0.00318042933940887,0,
00:00:00.026,-0.00224706530570984,0.00318208336830139,0,
00:00:00.027,-0.00225048512220383,0.00317884236574173,0,
00:00:00.028,-0.00224335491657257,0.00318002700805664,0,
00:00:00.029,-0.00224018096923828,0.00318335741758347,0,
00:00:00.03,-0.00224518775939941,0.00318659842014313,0,
00:00:00.031,-0.00225075334310532,0.00319451093673706,0,
00:00:00.032,-0.00224753469228745,0.00319614261388779,0,
00:00:00.033,-0.00224883109331131,0.0031893253326416,0,
00:00:00.034,-0.00225310027599335,0.00318503379821777,0,
00:00:00.035,-0.00225627422332764,0.00318025052547455,0,
00:00:00.036,-0.00225864350795746,0.00317736715078354,0,
00:00:00.037,-0.00225298851728439,0.00317783653736115,0,
00:00:00.038,-0.00223584473133087,0.00317814946174622,0,
00:00:00.039,-0.00222726166248322,0.0031777024269104,0,
00:00:00.04,-0.00223687291145325,0.00317622721195221,0,
00:00:00.041,-0.00224543362855911,0.00317399203777313,0,
00:00:00.042,-0.00224628299474716,0.0031733438372612,0,
00:00:00.043,-0.00224822759628296,0.00317233800888062,0,
00:00:00.044,-0.00225207209587097,0.00317486375570297,0,
00:00:00.045,-0.00225283205509186,0.00317899882793427,0,
00:00:00.046,-0.00225598365068436,0.00318114459514618,0,
00:00:00.047,-0.00226215273141861,0.00318451970815659,0,
00:00:00.048,-0.00226615369319916,0.00318686664104462,0,
00:00:00.049,-0.0022674947977066,0.00318711251020432,0,
00:00:00.05,-0.00226349383592606,0.00318646430969238,0,
00:00:00.051,-0.00226137042045593,0.00318505614995956,0,
00:00:00.052,-0.00225511193275452,0.00318201631307602,0,
00:00:00.053,-0.00223906338214874,0.00317873060703278,0,
00:00:00.054,-0.00223533064126968,0.00317591428756714,0,
00:00:00.055,-0.0022367388010025,0.00317320972681046,0,
00:00:00.056,-0.00223537534475327,0.00317421555519104,0,
00:00:00.057,-0.00223546475172043,0.00317669659852982,0,
00:00:00.058,-0.00223097205162048,0.00317645072937012,0,
00:00:00.059,-0.00223881751298904,0.00317372381687164,0,
00:00:00.06,-0.00224829465150833,0.00317332148551941,0,
00:00:00.061,-0.00225090980529785,0.00316815823316574,0,
00:00:00.062,-0.00225392729043961,0.00316751003265381,0,
00:00:00.063,-0.00225187093019485,0.00316949933767319,0,
00:00:00.064,-0.00224974751472473,0.00316797941923141,0,
00:00:00.065,-0.0022503063082695,0.00317852944135666,0,
00:00:00.066,-0.00223222374916077,0.0031948909163475,0,
00:00:00.067,-0.00222323834896088,0.00320018827915192,0,
00:00:00.068,-0.00223146378993988,0.00319797545671463,0,
00:00:00.069,-0.00223537534475327,0.00319556146860123,0,
00:00:00.07,-0.00223854929208755,0.00319332629442215,0,
00:00:00.071,-0.00224380195140839,0.00319162756204605,0,
00:00:00.072,-0.00224724411964417,0.00319008529186249,0,
00:00:00.073,-0.00224822759628296,0.00318798422813416,0,
00:00:00.074,-0.00224675238132477,0.00318465381860733,0,
00:00:00.075,-0.00224360078573227,0.00318275392055511,0,
00:00:00.076,-0.00224856287240982,0.0031852126121521,0,
00:00:00.077,-0.00225703418254852,0.00318968296051025,0,
00:00:00.078,-0.00225618481636047,0.00319404155015945,0,
00:00:00.079,-0.00226181745529175,0.00319895893335342,0,
00:00:00.08,-0.00226881355047226,0.00320081412792206,0,
00:00:00.081,-0.00226812064647675,0.00319804251194,0,
00:00:00.082,-0.00226119160652161,0.0031963437795639,0,
00:00:00.083,-0.00223282724618912,0.00319457799196243,0,
00:00:00.084,-0.00221295654773712,0.00319446623325348,0,
00:00:00.085,-0.0022273063659668,0.0031951367855072,0,
00:00:00.086,-0.0022340789437294,0.00319254398345947,0,
00:00:00.087,-0.00223197788000107,0.00318856537342072,0,
00:00:00.088,-0.00223834812641144,0.00318704545497894,0,
00:00:00.089,-0.0022427961230278,0.00318807363510132,0,
00:00:00.09,-0.0022454559803009,0.00318525731563568,0,
00:00:00.091,-0.00224697589874268,0.0031777024269104,0,
00:00:00.092,-0.00224641710519791,0.0031738355755806,0,
00:00:00.093,-0.00224827229976654,0.0031718909740448,0,
00:00:00.094,-0.00224818289279938,0.00317370146512985,0,
00:00:00.095,-0.00224035978317261,0.0031764954328537,0,
00:00:00.096,-0.00224458426237106,0.00317799299955368,0,
00:00:00.097,-0.00224453955888748,0.00317857414484024,0,
00:00:00.098,-0.0022440031170845,0.0031784400343895,0,
00:00:00.099,-0.00224623829126358,0.00317718833684921,0,
00:00:00.1,-0.00224339962005615,0.00317531079053879,0,
00:00:00.101,-0.00224156677722931,0.0031755343079567,0,
00:00:00.102,-0.00223812460899353,0.00317173451185226,0,
00:00:00.103,-0.00223282724618912,0.00316856056451797,0,
00:00:00.104,-0.00222741812467575,0.00316339731216431,0,
00:00:00.105,-0.00222869217395782,0.00316236913204193,0,
00:00:00.106,-0.00223716348409653,0.00315959751605988,0,
00:00:00.107,-0.00223886221647263,0.00315559655427933,0,
00:00:00.108,-0.00223434716463089,0.00315418839454651,0,
00:00:00.109,-0.00223162025213242,0.0031634196639061,0,
00:00:00.11,-0.00223823636770248,0.00317410379648209,0,
00:00:00.111,-0.00224726647138596,0.00319960713386536,0,
00:00:00.112,-0.00225468724966049,0.00321874022483826,0,
00:00:00.113,-0.00226018577814102,0.00321813672780991,0,
00:00:00.114,-0.00225741416215897,0.00321681797504425,0,
00:00:00.115,-0.00225120037794113,0.00321438163518906,0,
00:00:00.116,-0.00224936753511429,0.0032070055603981,0,
00:00:00.117,-0.00224657356739044,0.00320407748222351,0,
00:00:00.118,-0.00223709642887115,0.00320503860712051,0,
00:00:00.119,-0.00223928689956665,0.00320868194103241,0,
00:00:00.12,-0.00225736945867538,0.00320736318826675,0,
00:00:00.121,-0.00226762890815735,0.00320664793252945,0,
00:00:00.122,-0.0022699311375618,0.00320510566234589,0,
00:00:00.123,-0.00226738303899765,0.00320374220609665,0,
00:00:00.124,-0.00225866585969925,0.0032007023692131,0,
00:00:00.125,-0.00224914401769638,0.0031994953751564,0,
00:00:00.126,-0.00224069505929947,0.00319437682628632,0,
00:00:00.127,-0.00223716348409653,0.00319095700979233,0,
00:00:00.128,-0.00222822278738022,0.00318764895200729,0,
00:00:00.129,-0.00221210718154907,0.00318244099617004,0,
00:00:00.13,-0.00221896916627884,0.00317662954330444,0,
00:00:00.131,-0.00222288072109222,0.00317441672086716,0,
00:00:00.132,-0.00221720337867737,0.00317148864269257,0,
00:00:00.133,-0.0022161528468132,0.00317557901144028,0,
00:00:00.134,-0.00222433358430862,0.00318246334791183,0,
00:00:00.135,-0.00223325192928314,0.00318818539381027,0,
00:00:00.136,-0.00223711878061295,0.00320175290107727,0,
00:00:00.137,-0.00223664939403534,0.00320890545845032,0,
00:00:00.138,-0.00223515182733536,0.00321502983570099,0,
00:00:00.139,-0.00224049389362335,0.00321871787309647,0,
00:00:00.14,-0.00224462896585464,0.0032152533531189,0,
00:00:00.141,-0.00224809348583221,0.00320988893508911,0,
00:00:00.142,-0.00224838405847549,0.00320224463939667,0,
00:00:00.143,-0.00225325673818588,0.00319851189851761,0,
00:00:00.144,-0.00225933641195297,0.00319714844226837,0,
00:00:00.145,-0.00224912166595459,0.00319370627403259,0,
00:00:00.146,-0.00224103033542633,0.00318999588489532,0,
00:00:00.147,-0.00224453955888748,0.00318923592567444,0,
00:00:00.148,-0.00224699825048447,0.00318789482116699,0,
00:00:00.149,-0.00225260853767395,0.00318988412618637,0,
00:00:00.15,-0.00225021690130234,0.00319531559944153,0,
00:00:00.151,-0.00224407017230988,0.00319826602935791,0,
00:00:00.152,-0.00224286317825317,0.00320054590702057,0,
00:00:00.153,-0.00224091857671738,0.00319960713386536,0,
00:00:00.154,-0.0022425502538681,0.00320349633693695,0,
00:00:00.155,-0.00223041325807571,0.00320883840322495,0,
00:00:00.156,-0.00221673399209976,0.00321067124605179,0,
00:00:00.157,-0.00222326070070267,0.00320195406675339,0,
00:00:00.158,-0.00222907215356827,0.00319149345159531,0,
00:00:00.159,-0.00223280489444733,0.00319001823663712,0,
00:00:00.16,-0.00223403424024582,0.00319104641675949,0,
00:00:00.161,-0.00223810225725174,0.00318434089422226,0,
00:00:00.162,-0.00224346667528152,0.0031791552901268,0,
00:00:00.163,-0.00225211679935455,0.00318219512701035,0,
00:00:00.164,-0.00225500017404556,0.00318405032157898,0,
00:00:00.165,-0.00225558131933212,0.0031864196062088,0,
00:00:00.166,-0.00225542485713959,0.00318887829780579,0,
00:00:00.167,-0.00225115567445755,0.00319274514913559,0,
00:00:00.168,-0.00224248319864273,0.00320450216531754,0,
00:00:00.169,-0.00223097205162048,0.00321728736162186,0,
00:00:00.17,-0.00222929567098618,0.00321900844573975,0,
00:00:00.171,-0.00224221497774124,0.00321373343467712,0,
00:00:00.172,-0.00225191563367844,0.00321668386459351,0,
00:00:00.173,-0.00225372612476349,0.00321368873119354,0,
00:00:00.174,-0.00225075334310532,0.00321105122566223,0,
00:00:00.175,-0.00224889814853668,0.0032138004899025,0,
00:00:00.176,-0.00224838405847549,0.00321196764707565,0,
00:00:00.177,-0.0022331178188324,0.00320707261562347,0,
00:00:00.178,-0.00222013145685196,0.00320488214492798,0,
00:00:00.179,-0.00222951918840408,0.00320318341255188,0,
00:00:00.18,-0.00223246961832047,0.00319714844226837,0,
00:00:00.181,-0.00223991274833679,0.00319565087556839,0,
00:00:00.182,-0.00224773585796356,0.00319609791040421,0,
00:00:00.183,-0.00224990397691727,0.00319768488407135,0,
00:00:00.184,-0.00225131213665009,0.00319793075323105,0,
00:00:00.185,-0.00224371254444122,0.00319980829954147,0,
00:00:00.186,-0.00223799049854279,0.00320157408714294,0,
00:00:00.187,-0.00224127620458603,0.00320667028427124,0,
00:00:00.188,-0.00223816931247711,0.00320112705230713,0,
00:00:00.189,-0.00223539769649506,0.00319580733776093,0,
00:00:00.19,-0.00224018096923828,0.0031927227973938,0,
00:00:00.191,-0.00224217027425766,0.00319323688745499,0,
00:00:00.192,-0.00223816931247711,0.0032016858458519,0,
00:00:00.193,-0.00224476307630539,0.00320333987474442,0,
00:00:00.194,-0.00224331021308899,0.00319694727659225,0,
00:00:00.195,-0.00223879516124725,0.00319227576255798,0,
00:00:00.196,-0.00223412364721298,0.0031888335943222,0,
00:00:00.197,-0.0022386834025383,0.00319218635559082,0,
00:00:00.198,-0.00223548710346222,0.00319752842187881,0,
00:00:00.199,-0.00222386419773102,0.00320146232843399,0,
00:00:00.2,-0.00222793221473694,0.0032123476266861,0,
00:00:00.201,-0.00223689526319504,0.00321639329195023,0,
00:00:00.202,-0.00224684178829193,0.00322280824184418,0,
00:00:00.203,-0.00224536657333374,0.00322756916284561,0,
00:00:00.204,-0.00223419070243835,0.00322037190198898,0,
00:00:00.205,-0.00223678350448608,0.00321561098098755,0,
00:00:00.206,-0.00223895162343979,0.00321713089942932,0,
00:00:00.207,-0.00223725289106369,0.00322090834379196,0,
00:00:00.208,-0.00223416835069656,0.00321739912033081,0,
00:00:00.209,-0.00223251432180405,0.003212571144104,0,
00:00:00.21,-0.00222909450531006,0.00320993363857269,0,
00:00:00.211,-0.00221697986125946,0.00321114063262939,0,
00:00:00.212,-0.00222057849168777,0.00320810079574585,0,
00:00:00.213,-0.00223320722579956,0.00320126116275787,0,
00:00:00.214,-0.00224004685878754,0.00320141762495041,0,
00:00:00.215,-0.00224525481462479,0.00320150703191757,0,
00:00:00.216,-0.00225097686052322,0.00320255756378174,0,
00:00:00.217,-0.00225341320037842,0.00320231169462204,0,
00:00:00.218,-0.00225410610437393,0.00319806486368179,0,
00:00:00.219,-0.00225600600242615,0.00319582968950272,0,
00:00:00.22,-0.00225728005170822,0.00319647789001465,0,
00:00:00.221,-0.00225560367107391,0.00319688022136688,0,
00:00:00.222,-0.00225133448839188,0.00320213288068771,0,
00:00:00.223,-0.00224286317825317,0.00321116298437119,0,
00:00:00.224,-0.00223899632692337,0.00321561098098755,0,
00:00:00.225,-0.00223734229803085,0.00321833789348602,0,
00:00:00.226,-0.00222587585449219,0.00322108715772629,0,
00:00:00.227,-0.00221894681453705,0.0032244399189949,0,
00:00:00.228,-0.00222283601760864,0.00322405993938446,0,
00:00:00.229,-0.00222569704055786,0.00321420282125473,0,
00:00:00.23,-0.00223128497600555,0.00321243703365326,0,
00:00:00.231,-0.00223633646965027,0.00321395695209503,0,
00:00:00.232,-0.00224078446626663,0.00322030484676361,0,
00:00:00.233,-0.00224525481462479,0.00322591513395309,0,
00:00:00.234,-0.00224878638982773,0.00322756916284561,0,
00:00:00.235,-0.00225137919187546,0.0032232329249382,0,
00:00:00.236,-0.00224585831165314,0.00322374701499939,0,
00:00:00.237,-0.00223785638809204,0.00322855263948441,0,
00:00:00.238,-0.00225969403982162,0.00322642922401428,0,
00:00:00.239,-0.00226861238479614,0.00322508811950684,0,
00:00:00.24,-0.00226452201604843,0.0032225176692009,0,
00:00:00.241,-0.00226273387670517,0.00322059541940689,0,
00:00:00.242,-0.00226293504238129,0.00321903079748154,0,
00:00:00.243,-0.00226137042045593,0.00321950018405914,0,
00:00:00.244,-0.00225088745355606,0.00322224944829941,0,
00:00:00.245,-0.00223121792078018,0.00322356820106506,0,
00:00:00.246,-0.00222621113061905,0.00322325527667999,0,
00:00:00.247,-0.00222719460725784,0.00322028249502182,0,
00:00:00.248,-0.00221318006515503,0.00321710854768753,0,
00:00:00.249,-0.00221722573041916,0.00321652740240097,0,
00:00:00.25,-0.00223179906606674,0.00321724265813828,0,
00:00:00.251,-0.00223953276872635,0.00321820378303528,0,
00:00:00.252,-0.00224174559116364,0.00321628153324127,0,
00:00:00.253,-0.00223787873983383,0.00321279466152191,0,
00:00:00.254,-0.00223347544670105,0.00320776551961899,0,
00:00:00.255,-0.00223182141780853,0.00320613384246826,0,
00:00:00.256,-0.00222507119178772,0.00320085883140564,0,
00:00:00.257,-0.00222466886043549,0.00319844484329224,0,
00:00:00.258,-0.00223173201084137,0.00319464504718781,0,
00:00:00.259,-0.00223734229803085,0.00318655371665955,0,
00:00:00.26,-0.00223796814680099,0.00319073349237442,0,
00:00:00.261,-0.00223736464977264,0.00320325046777725,0,
00:00:00.262,-0.00223935395479202,0.00320810079574585,0,
00:00:00.263,-0.00224257260560989,0.00321268290281296,0,
00:00:00.264,-0.00224997103214264,0.00321920961141586,0,
00:00:00.265,-0.00225477665662766,0.00322104245424271,0,
00:00:00.266,-0.00224896520376205,0.00323034077882767,0,
00:00:00.267,-0.00224717706441879,0.00322946906089783,0,
00:00:00.268,-0.00225075334310532,0.0032256692647934,0,
00:00:00.269,-0.00225113332271576,0.00322913378477097,0,
00:00:00.27,-0.00224257260560989,0.00323481112718582,0,
00:00:00.271,-0.00223828107118607,0.00323662161827087,0,
00:00:00.272,-0.00224809348583221,0.00323393940925598,0,
00:00:00.273,-0.00225037336349487,0.00323431938886642,0,
00:00:00.274,-0.00224652886390686,0.00323168188333511,0,
00:00:00.275,-0.00223586708307266,0.00322955846786499,0,
00:00:00.276,-0.00223235785961151,0.00322618335485458,0,
00:00:00.277,-0.00223756581544876,0.00322166830301285,0,
00:00:00.278,-0.00225046277046204,0.00322126597166061,0,
00:00:00.279,-0.00225343555212021,0.00322464108467102,0,
00:00:00.28,-0.00225283205509186,0.0032307431101799,0,
00:00:00.281,-0.00225788354873657,0.00323369354009628,0,
00:00:00.282,-0.00226125866174698,0.00322964787483215,0,
00:00:00.283,-0.00224688649177551,0.00322305411100388,0,
00:00:00.284,-0.00222773104906082,0.00321849435567856,0,
00:00:00.285,-0.00222431123256683,0.00321844965219498,0,
00:00:00.286,-0.00222520530223846,0.00322099775075912,0,
00:00:00.287,-0.00223289430141449,0.00322046130895615,0,
00:00:00.288,-0.00223367661237717,0.0032186284661293,0,
00:00:00.289,-0.00222748517990112,0.00321464985609055,0,
00:00:00.29,-0.00222080200910568,0.0032113641500473,0,
00:00:00.291,-0.00221876800060272,0.00320792198181152,0,
00:00:00.292,-0.00221742689609528,0.00320544093847275,0,
00:00:00.293,-0.00221434235572815,0.00321324169635773,0,
00:00:00.294,-0.00221499055624008,0.00321965664625168,0,
00:00:00.295,-0.0022197961807251,0.00322437286376953,0,
00:00:00.296,-0.00222368538379669,0.00322967022657394,0,
00:00:00.297,-0.00222811102867126,0.00323405116796494,0,
00:00:00.298,-0.00223414599895477,0.00323058664798737,0,
00:00:00.299,-0.00223816931247711,0.00322882086038589,0,
00:00:00.3,-0.00223863869905472,0.00322151184082031,0,
00:00:00.301,-0.00224176794290543,0.00321375578641891,0,
00:00:00.302,-0.00224791467189789,0.00320537388324738,0,
00:00:00.303,-0.00225193798542023,0.00320260226726532,0,
00:00:00.304,-0.00224563479423523,0.00321527570486069,0,
00:00:00.305,-0.00223508477210999,0.00322345644235611,0,
00:00:00.306,-0.00222229957580566,0.00323047488927841,0,
00:00:00.307,-0.00222064554691315,0.00323984026908875,0,
00:00:00.308,-0.00223226845264435,0.00324781984090805,0,
00:00:00.309,-0.00223622471094131,0.00325861573219299,0,
00:00:00.31,-0.00223150849342346,0.00325597822666168,0,
00:00:00.311,-0.00222305953502655,0.00324978679418564,0,
00:00:00.312,-0.00223233550786972,0.00324857980012894,0,
00:00:00.313,-0.00224393606185913,0.00324482470750809,0,
00:00:00.314,-0.0022507980465889,0.0032414048910141,0,
00:00:00.315,-0.00225589424371719,0.00324048846960068,0,
00:00:00.316,-0.00225137919187546,0.00324048846960068,0,
00:00:00.317,-0.00224147737026215,0.00323771685361862,0,
00:00:00.318,-0.00224342197179794,0.00323794037103653,0,
00:00:00.319,-0.00224270671606064,0.00323923677206039,0,
00:00:00.32,-0.00223736464977264,0.00323876738548279,0,
00:00:00.321,-0.00223763287067413,0.00323666632175446,0,
00:00:00.322,-0.00225050747394562,0.00323740392923355,0,
00:00:00.323,-0.00225497782230377,0.00323834270238876,0,
00:00:00.324,-0.00224930047988892,0.00324433296918869,0,
00:00:00.325,-0.00224543362855911,0.00324580818414688,0,
00:00:00.326,-0.00224887579679489,0.00324471294879913,0,
00:00:00.327,-0.00224559009075165,0.00324688106775284,0,
00:00:00.328,-0.0022273063659668,0.00324520468711853,0,
00:00:00.329,-0.00221890211105347,0.00324377417564392,0,
00:00:00.33,-0.00222732871770859,0.00324542820453644,0,
00:00:00.331,-0.00224460661411285,0.00324404239654541,0,
00:00:00.332,-0.00225616246461868,0.00323919206857681,0,
00:00:00.333,-0.00225667655467987,0.00323693454265594,0,
00:00:00.334,-0.0022638738155365,0.00323141366243362,0,
00:00:00.335,-0.00226867944002151,0.00322741270065308,0,
00:00:00.336,-0.00226371735334396,0.00322633981704712,0,
00:00:00.337,-0.00225446373224258,0.00323018431663513,0,
00:00:00.338,-0.00224748998880386,0.00323581695556641,0,
00:00:00.339,-0.00224176794290543,0.0032450258731842,0,
00:00:00.34,-0.00222849100828171,0.00324947386980057,0,
00:00:00.341,-0.00221693515777588,0.00324936211109161,0,
00:00:00.342,-0.00221391767263412,0.00324974209070206,0,
00:00:00.343,-0.00221934914588928,0.00324835628271103,0,
00:00:00.344,-0.00222840160131454,0.00324498116970062,0,
00:00:00.345,-0.00223604589700699,0.00324120372533798,0,
00:00:00.346,-0.00223997980356216,0.00324346125125885,0,
00:00:00.347,-0.00224585831165314,0.00324659049510956,0,
00:00:00.348,-0.00224731117486954,0.00324469059705734,0,
00:00:00.349,-0.00223968923091888,0.00324332714080811,0,
00:00:00.35,-0.00223211199045181,0.00324612110853195,0,
00:00:00.351,-0.00223224610090256,0.00324951857328415,0,
00:00:00.352,-0.00223063677549362,0.00324661284685135,0,
00:00:00.353,-0.00222994387149811,0.00324618816375732,0,
00:00:00.354,-0.00224346667528152,0.00324726104736328,0,
00:00:00.355,-0.00225314497947693,0.00325293838977814,0,
00:00:00.356,-0.00225922465324402,0.00325425714254379,0,
00:00:00.357,-0.00225743651390076,0.00325731933116913,0,
00:00:00.358,-0.00224845111370087,0.00325868278741837,0,
00:00:00.359,-0.00224695354700089,0.00325365364551544,0,
00:00:00.36,-0.00224006921052933,0.00325130671262741,0,
00:00:00.361,-0.00223586708307266,0.00325021147727966,0,
00:00:00.362,-0.0022406280040741,0.00324884802103043,0,
00:00:00.363,-0.00223984569311142,0.00324723869562149,0,
00:00:00.364,-0.00223803520202637,0.00324540585279465,0,
00:00:00.365,-0.00223486125469208,0.0032455176115036,0,
00:00:00.366,-0.0022413432598114,0.00324927270412445,0,
00:00:00.367,-0.00224771350622177,0.00325009971857071,0,
00:00:00.368,-0.00223888456821442,0.00324656814336777,0,
00:00:00.369,-0.0022265687584877,0.00324665755033493,0,
00:00:00.37,-0.00222782045602798,0.00324545055627823,0,
00:00:00.371,-0.00223980098962784,0.00324902683496475,0,
00:00:00.372,-0.00224581360816956,0.00325034558773041,0,
00:00:00.373,-0.00224127620458603,0.00325246900320053,0,
00:00:00.374,-0.00223973393440247,0.00325573235750198,0,
00:00:00.375,-0.00224467366933823,0.00325571000576019,0,
00:00:00.376,-0.0022498145699501,0.00325047969818115,0,
00:00:00.377,-0.00224737823009491,0.0032465010881424,0,
00:00:00.378,-0.00223850458860397,0.00324683636426926,0,
00:00:00.379,-0.00222907215356827,0.00324679166078568,0,
00:00:00.38,-0.00223030149936676,0.00324464589357376,0,
00:00:00.381,-0.00223640352487564,0.00324319303035736,0,
00:00:00.382,-0.00223052501678467,0.00324484705924988,0,
00:00:00.383,-0.00222330540418625,0.00324129313230515,0,
00:00:00.384,-0.00223258137702942,0.00323894619941711,0,
00:00:00.385,-0.00223834812641144,0.00323807448148727,0,
00:00:00.386,-0.00223709642887115,0.00324522703886032,0,
00:00:00.387,-0.00223738700151443,0.00326111912727356,0,
00:00:00.388,-0.00223816931247711,0.00326981395483017,0,
00:00:00.389,-0.00223895162343979,0.00327415019273758,0,
00:00:00.39,-0.00224348902702332,0.00327298790216446,0,
00:00:00.391,-0.00224833935499191,0.00327081978321075,0,
00:00:00.392,-0.002254419028759,0.00326990336179733,0,
00:00:00.393,-0.00226300209760666,0.00326916575431824,0,
00:00:00.394,-0.00226955115795136,0.00326299667358398,0,
00:00:00.395,-0.00227487087249756,0.00325541943311691,0,
00:00:00.396,-0.00227424502372742,0.00325571000576019,0,
00:00:00.397,-0.00224829465150833,0.0032554417848587,0,
00:00:00.398,-0.00222375243902206,0.0032544806599617,0,
00:00:00.399,-0.00223459303379059,0.00324978679418564,0,
00:00:00.4,-0.00224308669567108,0.00324623286724091,0,
00:00:00.401,-0.00223425775766373,0.0032423660159111,0,
00:00:00.402,-0.00222853571176529,0.00324104726314545,0,
00:00:00.403,-0.00224281847476959,0.00324719399213791,0,
00:00:00.404,-0.00225676596164703,0.00324784219264984,0,
00:00:00.405,-0.00224820524454117,0.00324929505586624,0,
00:00:00.406,-0.0022379457950592,0.00325367599725723,0,
00:00:00.407,-0.00223544239997864,0.0032665953040123,0,
00:00:00.408,-0.00222019851207733,0.00328505784273148,0,
00:00:00.409,-0.00221492350101471,0.00329183042049408,0,
00:00:00.41,-0.0022280216217041,0.00329668074846268,0,
00:00:00.411,-0.00223448127508163,0.00329377502202988,0,
00:00:00.412,-0.00223032385110855,0.00328606367111206,0,
00:00:00.413,-0.00223443657159805,0.0032794252038002,0,
00:00:00.414,-0.00223995745182037,0.00327544659376144,0,
00:00:00.415,-0.00224049389362335,0.00327394902706146,0,
00:00:00.416,-0.00223910808563232,0.00327169150114059,0,
00:00:00.417,-0.00223778933286667,0.00326366722583771,0,
00:00:00.418,-0.00223454833030701,0.00325577706098557,0,
00:00:00.419,-0.00223519653081894,0.00325349718332291,0,
00:00:00.42,-0.00224892050027847,0.00325030088424683,0,
00:00:00.421,-0.00226666778326035,0.00325168669223785,0,
00:00:00.422,-0.0022687241435051,0.00325968861579895,0,
00:00:00.423,-0.00226494669914246,0.00326471775770187,0,
00:00:00.424,-0.00226282328367233,0.00327175855636597,0,
00:00:00.425,-0.0022609680891037,0.00328286737203598,0,
00:00:00.426,-0.00225526839494705,0.00329507142305374,0,
00:00:00.427,-0.00224541127681732,0.00329377502202988,0,
00:00:00.428,-0.00223720818758011,0.00328047573566437,0,
00:00:00.429,-0.00224322080612183,0.0032733678817749,0,
00:00:00.43,-0.00223828107118607,0.00327392667531967,0,
00:00:00.431,-0.00222621113061905,0.00327517837285995,0,
00:00:00.432,-0.002226322889328,0.00327873229980469,0,
00:00:00.433,-0.00223434716463089,0.00327879935503006,0,
00:00:00.434,-0.00223962217569351,0.0032762736082077,0,
00:00:00.435,-0.00224281847476959,0.00327397137880325,0,
00:00:00.436,-0.00224601477384567,0.00326905399560928,0,
00:00:00.437,-0.00224268436431885,0.003267802298069,0,
00:00:00.438,-0.00223394483327866,0.00326679646968842,0,
00:00:00.439,-0.00223597884178162,0.00326802581548691,0,
00:00:00.44,-0.00224098563194275,0.0032707080245018,0,
00:00:00.441,-0.0022459477186203,0.00327432900667191,0,
00:00:00.442,-0.0022495910525322,0.00327969342470169,0,
00:00:00.443,-0.00225247442722321,0.00327850878238678,0,
00:00:00.444,-0.00225754827260971,0.0032767653465271,0,
00:00:00.445,-0.00226707011461258,0.00327475368976593,0,
00:00:00.446,-0.00227221101522446,0.00327269732952118,0,
00:00:00.447,-0.00227449089288712,0.00327157974243164,0,
00:00:00.448,-0.00227563083171844,0.00327211618423462,0,
00:00:00.449,-0.00226791948080063,0.00326679646968842,0,
00:00:00.45,-0.00226315855979919,0.0032617449760437,0,
00:00:00.451,-0.00226130336523056,0.00325734168291092,0,
00:00:00.452,-0.00224089622497559,0.00326013565063477,0,
00:00:00.453,-0.00223548710346222,0.00327088683843613,0,
00:00:00.454,-0.00224268436431885,0.00327698886394501,0,
00:00:00.455,-0.00223754346370697,0.00328145921230316,0,
00:00:00.456,-0.00223025679588318,0.00328704714775085,0,
00:00:00.457,-0.00223072618246078,0.00328689068555832,0,
00:00:00.458,-0.00223611295223236,0.00327719002962112,0,
00:00:00.459,-0.00224024802446365,0.00327178090810776,0,
00:00:00.46,-0.00223615765571594,0.00327048450708389,0,
00:00:00.461,-0.00223179906606674,0.00327263027429581,0,
00:00:00.462,-0.00222954154014587,0.00327640771865845,0,
00:00:00.463,-0.00222375243902206,0.00328277796506882,0,
00:00:00.464,-0.00222048908472061,0.0032859742641449,0,
00:00:00.465,-0.00222603231668472,0.00327911227941513,0,
00:00:00.466,-0.0022265687584877,0.00326438248157501,0,
00:00:00.467,-0.00223224610090256,0.00325465947389603,0,
00:00:00.468,-0.00224286317825317,0.00325329601764679,0,
00:00:00.469,-0.00224889814853668,0.00325517356395721,0,
00:00:00.47,-0.00225187093019485,0.00326024740934372,0,
00:00:00.471,-0.00224941223859787,0.00326512008905411,0,
00:00:00.472,-0.00224436074495316,0.00327061861753464,0,
00:00:00.473,-0.00223926454782486,0.00327508896589279,0,
00:00:00.474,-0.00222761929035187,0.00326478481292725,0,
00:00:00.475,-0.00222853571176529,0.00325904041528702,0,
00:00:00.476,-0.00223787873983383,0.00326035916805267,0,
00:00:00.477,-0.00224565714597702,0.00326619297266006,0,
00:00:00.478,-0.00224925577640533,0.00327638536691666,0,
00:00:00.479,-0.00225381553173065,0.00328617542982101,0,
00:00:00.48,-0.00226081162691116,0.00329860299825668,0,
00:00:00.481,-0.00226409733295441,0.00331297516822815,0,
00:00:00.482,-0.002268947660923,0.00331322103738785,0,
00:00:00.483,-0.00226762890815735,0.003309465944767,0,
00:00:00.484,-0.00225075334310532,0.0033002570271492,0,
00:00:00.485,-0.00224773585796356,0.00329026579856873,0,
00:00:00.486,-0.00225862115621567,0.00328865647315979,0,
00:00:00.487,-0.00224471837282181,0.00328727066516876,0,
00:00:00.488,-0.00222319364547729,0.00328342616558075,0,
00:00:00.489,-0.00221686810255051,0.00328043103218079,0,
00:00:00.49,-0.00222422182559967,0.00328029692173004,0,
00:00:00.491,-0.00223901867866516,0.00328000634908676,0,
00:00:00.492,-0.00224471837282181,0.00328695774078369,0,
00:00:00.493,-0.00224603712558746,0.00329507142305374,0,
00:00:00.494,-0.00224308669567108,0.00329985469579697,0,
00:00:00.495,-0.00223982334136963,0.00329940766096115,0,
00:00:00.496,-0.00223888456821442,0.00329303741455078,0,
00:00:00.497,-0.00223555415868759,0.00328313559293747,0,
00:00:00.498,-0.00223298370838165,0.00327439606189728,0,
00:00:00.499,-0.00223530828952789,0.00327249616384506,0,
00:00:00.5,-0.00223973393440247,0.00327587127685547,0,
00:00:00.501,-0.00224071741104126,0.00328069925308228,0,
00:00:00.502,-0.00224114209413528,0.00328235328197479,0,
00:00:00.503,-0.00224579125642776,0.00327799469232559,0,
00:00:00.504,-0.00225269794464111,0.00327444076538086,0,
00:00:00.505,-0.0022580623626709,0.00328152626752853,0,
00:00:00.506,-0.00225131213665009,0.0032910481095314,0,
00:00:00.507,-0.00224585831165314,0.00329482555389404,0,
00:00:00.508,-0.00224784761667252,0.00329659134149551,0,
00:00:00.509,-0.00224985927343369,0.00330021232366562,0,
00:00:00.51,-0.00224483013153076,0.00330338627099991,0,
00:00:00.511,-0.00223910808563232,0.00330908596515656,0,
00:00:00.512,-0.00224880874156952,0.00330595672130585,0,
00:00:00.513,-0.00226248800754547,0.00329849123954773,0,
00:00:00.514,-0.00226794183254242,0.00329703837633133,0,
00:00:00.515,-0.00227411091327667,0.00329592078924179,0,
00:00:00.516,-0.00227862596511841,0.00329357385635376,0,
00:00:00.517,-0.00228247046470642,0.00329010933637619,0,
00:00:00.518,-0.00228186696767807,0.0032881423830986,0,
00:00:00.519,-0.00227672606706619,0.00328807532787323,0,
00:00:00.52,-0.002268947660923,0.0032852366566658,0,
00:00:00.521,-0.00226465612649918,0.00328554958105087,0,
00:00:00.522,-0.0022551566362381,0.0032878965139389,0,
00:00:00.523,-0.00223177671432495,0.00329243391752243,0,
00:00:00.524,-0.00222267955541611,0.00328948348760605,0,
00:00:00.525,-0.00223083794116974,0.00329071283340454,0,
00:00:00.526,-0.00224223732948303,0.00329907238483429,0,
00:00:00.527,-0.00224100798368454,0.00330524146556854,0,
00:00:00.528,-0.00224031507968903,0.00330613553524017,0,
00:00:00.529,-0.0022423267364502,0.00330311805009842,0,
00:00:00.53,-0.00224599242210388,0.00329916179180145,0,
00:00:00.531,-0.00224605947732925,0.00329381972551346,0,
00:00:00.532,-0.00223443657159805,0.00328941643238068,0,
00:00:00.533,-0.00222896039485931,0.00328881293535233,0,
00:00:00.534,-0.00222726166248322,0.00328807532787323,0,
00:00:00.535,-0.00221534818410873,0.0032847672700882,0,
00:00:00.536,-0.00221487879753113,0.00328494608402252,0,
00:00:00.537,-0.00222227722406387,0.00328646600246429,0,
00:00:00.538,-0.00222596526145935,0.00328921526670456,0,
00:00:00.539,-0.0022299662232399,0.0032951831817627,0,
00:00:00.54,-0.00223124027252197,0.00329574197530746,0,
00:00:00.541,-0.00222989916801453,0.00329404324293137,0,
00:00:00.542,-0.00223001092672348,0.00329024344682693,0,
00:00:00.543,-0.00223119556903839,0.00328867882490158,0,
00:00:00.544,-0.00223622471094131,0.00328972935676575,0,
00:00:00.545,-0.00224056094884872,0.00329303741455078,0,
00:00:00.546,-0.00224199146032333,0.00329303741455078,0,
00:00:00.547,-0.00224170088768005,0.00329303741455078,0,
00:00:00.548,-0.00224471837282181,0.00328776240348816,0,
00:00:00.549,-0.00224599242210388,0.00328566133975983,0,
00:00:00.55,-0.00223872810602188,0.00328925997018814,0,
00:00:00.551,-0.00223354250192642,0.00328979641199112,0,
00:00:00.552,-0.00224420428276062,0.00329109281301498,0,
00:00:00.553,-0.00225553661584854,0.00329647958278656,0,
00:00:00.554,-0.00226130336523056,0.0032958984375,0,
00:00:00.555,-0.00225334614515305,0.0033005028963089,0,
00:00:00.556,-0.00225050747394562,0.00330774486064911,0,
00:00:00.557,-0.00225318968296051,0.00330506265163422,0,
00:00:00.558,-0.00225506722927094,0.00330495089292526,0,
00:00:00.559,-0.00225254148244858,0.00330515205860138,0,
00:00:00.56,-0.00224800407886505,0.00330530852079391,0,
00:00:00.561,-0.00223546475172043,0.00329884886741638,0,
00:00:00.562,-0.00222739577293396,0.0032900869846344,0,
00:00:00.563,-0.00222815573215485,0.00328311324119568,0,
00:00:00.564,-0.00223249197006226,0.00327879935503006,0,
00:00:00.565,-0.00223197788000107,0.00327596068382263,0,
00:00:00.566,-0.0022268146276474,0.00327812880277634,0,
00:00:00.567,-0.00222638994455338,0.00328060984611511,0,
00:00:00.568,-0.00223320722579956,0.00328841060400009,0,
00:00:00.569,-0.00223937630653381,0.00330061465501785,0,
00:00:00.57,-0.0022459477186203,0.0033126175403595,0,
00:00:00.571,-0.00224766880273819,0.00332055240869522,0,
00:00:00.572,-0.00224892050027847,0.00331605970859528,0,
00:00:00.573,-0.00225287675857544,0.00331020355224609,0,
00:00:00.574,-0.00224563479423523,0.0032983124256134,0,
00:00:00.575,-0.00223828107118607,0.00328635424375534,0,
00:00:00.576,-0.0022512674331665,0.00328152626752853,0,
00:00:00.577,-0.00225555896759033,0.00328988581895828,0,
00:00:00.578,-0.00224348902702332,0.00330072641372681,0,
00:00:00.579,-0.00223734229803085,0.00331060588359833,0,
00:00:00.58,-0.00223184376955032,0.00331737846136093,0,
00:00:00.581,-0.00223906338214874,0.00331306457519531,0,
00:00:00.582,-0.00223638117313385,0.00330738723278046,0,
00:00:00.583,-0.00223729759454727,0.00330964475870132,0,
00:00:00.584,-0.00224748998880386,0.00331351161003113,0,
00:00:00.585,-0.00225198268890381,0.0033126175403595,0,
00:00:00.586,-0.0022449865937233,0.00331205874681473,0,
00:00:00.587,-0.00223647058010101,0.00331319868564606,0,
00:00:00.588,-0.00224044919013977,0.00331078469753265,0,
00:00:00.589,-0.00225388258695602,0.00330613553524017,0,
00:00:00.59,-0.00226371735334396,0.00330101698637009,0,
00:00:00.591,-0.00226101279258728,0.00329569727182388,0,
00:00:00.592,-0.00226197391748428,0.00329194217920303,0,
00:00:00.593,-0.00225573778152466,0.00328829884529114,0,
00:00:00.594,-0.00225050747394562,0.00329294800758362,0,
00:00:00.595,-0.00225028395652771,0.00330005586147308,0,
00:00:00.596,-0.00223879516124725,0.00331154465675354,0,
00:00:00.597,-0.00222679227590561,0.00331384688615799,0,
00:00:00.598,-0.00222044438123703,0.00331096351146698,0,
00:00:00.599,-0.0022105872631073,0.00330868363380432,0,
00:00:00.6,-0.00221872329711914,0.00330984592437744,0,
00:00:00.601,-0.00222985446453094,0.00331111997365952,0,
00:00:00.602,-0.00223702937364578,0.00331183522939682,0,
00:00:00.603,-0.00223968923091888,0.00331514328718185,0,
00:00:00.604,-0.00224105268716812,0.00331360101699829,0,
00:00:00.605,-0.00224152207374573,0.00330953299999237,0,
00:00:00.606,-0.00223705172538757,0.0033024474978447,0,
00:00:00.607,-0.00223510712385178,0.00329482555389404,0,
00:00:00.608,-0.00223913043737412,0.00328993052244186,0,
00:00:00.609,-0.00223671644926071,0.00328836590051651,0,
00:00:00.61,-0.0022338330745697,0.00329048931598663,0,
00:00:00.611,-0.00224029272794724,0.00329694896936417,0,
00:00:00.612,-0.00224588066339493,0.00330588966608047,0,
00:00:00.613,-0.00225207209587097,0.00331002473831177,0,
00:00:00.614,-0.00225524604320526,0.00331134349107742,0,
00:00:00.615,-0.00226259976625443,0.00331643968820572,0,
00:00:00.616,-0.00227261334657669,0.00331605970859528,0,
00:00:00.617,-0.00227601081132889,0.00330367684364319,0,
00:00:00.618,-0.00227285921573639,0.00329779833555222,0,
00:00:00.619,-0.00225294381380081,0.00329355150461197,0,
00:00:00.62,-0.00224270671606064,0.00328975170850754,0,
00:00:00.621,-0.00223403424024582,0.00329601019620895,0,
00:00:00.622,-0.00222446769475937,0.0032978430390358,0,
00:00:00.623,-0.0022248700261116,0.00330014526844025,0,
00:00:00.624,-0.00222359597682953,0.00331362336874008,0,
00:00:00.625,-0.00223052501678467,0.00331635028123856,0,
00:00:00.626,-0.00224445015192032,0.00330928713083267,0,
00:00:00.627,-0.00225448608398438,0.00331049412488937,0,
00:00:00.628,-0.00225180387496948,0.0033155232667923,0,
00:00:00.629,-0.00224100798368454,0.00332227349281311,0,
00:00:00.63,-0.00223611295223236,0.00332692265510559,0,
00:00:00.631,-0.00223314017057419,0.0033305436372757,0,
00:00:00.632,-0.00222983211278915,0.00332964956760406,0,
00:00:00.633,-0.0022260770201683,0.00332294404506683,0,
00:00:00.634,-0.00222717225551605,0.00331670790910721,0,
00:00:00.635,-0.00223470479249954,0.00331009179353714,0,
00:00:00.636,-0.00223799049854279,0.00330658257007599,0,
00:00:00.637,-0.00224011391401291,0.0033070296049118,0,
00:00:00.638,-0.0022437572479248,0.00330881774425507,0,
00:00:00.639,-0.00224592536687851,0.00330725312232971,0,
00:00:00.64,-0.00224597007036209,0.00330356508493423,0,
00:00:00.641,-0.00224728882312775,0.00330524146556854,0,
00:00:00.642,-0.0022498145699501,0.0033126175403595,0,
00:00:00.643,-0.00225169211626053,0.00331456214189529,0,
00:00:00.644,-0.0022546648979187,0.00331225991249084,0,
00:00:00.645,-0.00225723534822464,0.00331165641546249,0,
00:00:00.646,-0.00225949287414551,0.00331545621156693,0,
00:00:00.647,-0.00225640833377838,0.00332336872816086,0,
00:00:00.648,-0.00224976986646652,0.00332529097795486,0,
00:00:00.649,-0.00224666297435761,0.00332184880971909,0,
00:00:00.65,-0.00224831700325012,0.00331500917673111,0,
00:00:00.651,-0.00224579125642776,0.00330691784620285,0,
00:00:00.652,-0.00224945694208145,0.00330660492181778,0,
00:00:00.653,-0.00225113332271576,0.0033123716711998,0,
00:00:00.654,-0.00224617123603821,0.00331319868564606,0,
00:00:00.655,-0.00224907696247101,0.00331836193799973,0,
00:00:00.656,-0.00226157158613205,0.0033261850476265,0,
00:00:00.657,-0.00226284563541412,0.00332842022180557,0,
00:00:00.658,-0.00225124508142471,0.00332457572221756,0,
00:00:00.659,-0.00224221497774124,0.00331690907478333,0,
00:00:00.66,-0.00224293023347855,0.00330832600593567,0,
00:00:00.661,-0.00224246084690094,0.0033046156167984,0,
00:00:00.662,-0.00224270671606064,0.00330573320388794,0,
00:00:00.663,-0.002240851521492,0.00330403447151184,0,
00:00:00.664,-0.00224398076534271,0.00330640375614166,0,
00:00:00.665,-0.00224458426237106,0.00331512093544006,0,
00:00:00.666,-0.00223041325807571,0.0033264085650444,0,
00:00:00.667,-0.00223273783922195,0.00333277881145477,0,
00:00:00.668,-0.00223816931247711,0.00333394110202789,0,
00:00:00.669,-0.00224308669567108,0.00333351641893387,0,
00:00:00.67,-0.00224824994802475,0.00332444161176682,0,
00:00:00.671,-0.00225728005170822,0.00330908596515656,0,
00:00:00.672,-0.00226684659719467,0.00329583138227463,0,
00:00:00.673,-0.00227288156747818,0.00328635424375534,0,
00:00:00.674,-0.00227643549442291,0.00328883528709412,0,
00:00:00.675,-0.0022704005241394,0.00329668074846268,0,
00:00:00.676,-0.00226740539073944,0.00330698490142822,0,
00:00:00.677,-0.00226007401943207,0.00331766903400421,0,
00:00:00.678,-0.00222956389188766,0.00333179533481598,0,
00:00:00.679,-0.00221552699804306,0.00334864854812622,0,
00:00:00.68,-0.00222129374742508,0.00334663689136505,0,
00:00:00.681,-0.00223007798194885,0.00333568453788757,0,
00:00:00.682,-0.0022364929318428,0.00332812964916229,0,
00:00:00.683,-0.00225073099136353,0.00332191586494446,0,
00:00:00.684,-0.00225846469402313,0.00331724435091019,0,
00:00:00.685,-0.0022600069642067,0.00330928713083267,0,
00:00:00.686,-0.00225493311882019,0.00330088287591934,0,
00:00:00.687,-0.00224766880273819,0.00330137461423874,0,
00:00:00.688,-0.00224382430315018,0.00330202281475067,0,
00:00:00.689,-0.0022408738732338,0.00330908596515656,0,
00:00:00.69,-0.00223014503717422,0.00332446396350861,0,
00:00:00.691,-0.00223381072282791,0.00333007425069809,0,
00:00:00.692,-0.00225412845611572,0.00332853198051453,0,
00:00:00.693,-0.0022674947977066,0.00333566218614578,0,
00:00:00.694,-0.00226083397865295,0.00334111601114273,0,
00:00:00.695,-0.00225350260734558,0.00334377586841583,0,
00:00:00.696,-0.00225716829299927,0.00334473699331284,0,
00:00:00.697,-0.00225694477558136,0.0033450722694397,0,
00:00:00.698,-0.00223609060049057,0.00334373116493225,0,
00:00:00.699,-0.00221575051546097,0.00333664566278458,0,
00:00:00.7,-0.00223103910684586,0.0033300518989563,0,
00:00:00.701,-0.00224431604146957,0.00332611799240112,0,
00:00:00.702,-0.0022486075758934,0.0033261626958847,0,
00:00:00.703,-0.00225247442722321,0.00332645326852798,0,
00:00:00.704,-0.00225348025560379,0.00332745909690857,0,
00:00:00.705,-0.00225426256656647,0.00332893431186676,0,
00:00:00.706,-0.00226246565580368,0.00332696735858917,0,
00:00:00.707,-0.00226841121912003,0.00332915782928467,0,
00:00:00.708,-0.00227019935846329,0.00332864373922348,0,
00:00:00.709,-0.00227489322423935,0.00332323461771011,0,
00:00:00.71,-0.00228014588356018,0.00332276523113251,0,
00:00:00.711,-0.00228068232536316,0.00332998484373093,0,
00:00:00.712,-0.00227496027946472,0.00333838909864426,0,
00:00:00.713,-0.00227035582065582,0.00334406644105911,0,
00:00:00.714,-0.002274289727211,0.00334788858890533,0,
00:00:00.715,-0.00227464735507965,0.00335226953029633,0,
00:00:00.716,-0.00227567553520203,0.00335157662630081,0,
00:00:00.717,-0.00227842479944229,0.00334931910037994,0,
00:00:00.718,-0.00227455794811249,0.00334390997886658,0,
00:00:00.719,-0.0022723451256752,0.00333943963050842,0,
00:00:00.72,-0.00227739661931992,0.0033336728811264,0,
00:00:00.721,-0.0022813081741333,0.0033264085650444,0,
00:00:00.722,-0.00228347629308701,0.00332126766443253,0,
00:00:00.723,-0.00228090584278107,0.00331782549619675,0,
00:00:00.724,-0.00227370858192444,0.00331670790910721,0,
00:00:00.725,-0.00227254629135132,0.00331706553697586,0,
00:00:00.726,-0.0022793635725975,0.00331719964742661,0,
00:00:00.727,-0.00229688733816147,0.00331954658031464,0,
00:00:00.728,-0.00230149179697037,0.00332540273666382,0,
00:00:00.729,-0.00230070948600769,0.0033344104886055,0,
00:00:00.73,-0.00230231881141663,0.00333492457866669,0,
00:00:00.731,-0.00230506807565689,0.00333494693040848,0,
00:00:00.732,-0.00230643153190613,0.00333932787179947,0,
00:00:00.733,-0.0022946298122406,0.00334259122610092,0,
00:00:00.734,-0.00227969884872437,0.00334661453962326,0,
00:00:00.735,-0.00227285921573639,0.00335466116666794,0,
00:00:00.736,-0.0022866278886795,0.00335079431533813,0,
00:00:00.737,-0.00229579210281372,0.00333856791257858,0,
00:00:00.738,-0.00228685140609741,0.00333309173583984,0,
00:00:00.739,-0.00225821882486343,0.0033336728811264,0,
00:00:00.74,-0.0022464394569397,0.00333541631698608,0,
00:00:00.741,-0.00225551426410675,0.00333928316831589,0,
00:00:00.742,-0.0022694393992424,0.00334522873163223,0,
00:00:00.743,-0.00228316336870193,0.00335197895765305,0,
00:00:00.744,-0.00229402631521225,0.00335508584976196,0,
00:00:00.745,-0.00230167061090469,0.00335311889648438,0,
00:00:00.746,-0.00230810791254044,0.00335408002138138,0,
00:00:00.747,-0.00231344997882843,0.00334779918193817,0,
00:00:00.748,-0.00230875611305237,0.00334245711565018,0,
00:00:00.749,-0.00228023529052734,0.00334053486585617,0,
00:00:00.75,-0.00226939469575882,0.00334614515304565,0,
00:00:00.751,-0.00227755308151245,0.00334954261779785,0,
00:00:00.752,-0.00227900594472885,0.00334804505109787,0,
00:00:00.753,-0.00227002054452896,0.00334368646144867,0,
00:00:00.754,-0.00226259976625443,0.00333727151155472,0,
00:00:00.755,-0.00227773189544678,0.00333821028470993,0,
00:00:00.756,-0.00229420512914658,0.00333939492702484,0,
00:00:00.757,-0.00230091065168381,0.00334066897630692,0,
00:00:00.758,-0.00230247527360916,0.00334444642066956,0,
00:00:00.759,-0.0023001953959465,0.00333698093891144,0,
00:00:00.76,-0.00230024009943008,0.00332607328891754,0,
00:00:00.761,-0.00229353457689285,0.003323994576931,0,
00:00:00.762,-0.00228839367628098,0.00332522392272949,0,
00:00:00.763,-0.00228998064994812,0.00332732498645782,0,
00:00:00.764,-0.00229382514953613,0.0033298060297966,0,
00:00:00.765,-0.00229029357433319,0.00333262234926224,0,
00:00:00.766,-0.002273328602314,0.00334294885396957,0,
00:00:00.767,-0.002254419028759,0.00335631519556046,0,
00:00:00.768,-0.00227055698633194,0.00335687398910522,0,
00:00:00.769,-0.00229192525148392,0.00335302948951721,0,
00:00:00.77,-0.00230817496776581,0.00334815680980682,0,
00:00:00.771,-0.00230564922094345,0.00334576517343521,0,
00:00:00.772,-0.00229936838150024,0.00334791094064713,0,
00:00:00.773,-0.00229769200086594,0.00335197895765305,0,
00:00:00.774,-0.00229404866695404,0.00335032492876053,0,
00:00:00.775,-0.00227735191583633,0.00335188955068588,0,
00:00:00.776,-0.00226074457168579,0.00336221605539322,0,
00:00:00.777,-0.00225276499986649,0.00337395071983337,0,
00:00:00.778,-0.00225131213665009,0.0033690556883812,0,
00:00:00.779,-0.00225372612476349,0.00336369127035141,0,
00:00:00.78,-0.00225933641195297,0.00336161255836487,0,
00:00:00.781,-0.00226271152496338,0.00335414707660675,0,
00:00:00.782,-0.00226130336523056,0.00334534049034119,0,
00:00:00.783,-0.00226034224033356,0.00334078073501587,0,
00:00:00.784,-0.00226282328367233,0.00334091484546661,0,
00:00:00.785,-0.00226479023694992,0.00334596633911133,0,
00:00:00.786,-0.00226745009422302,0.00335193425416946,0,
00:00:00.787,-0.00227451324462891,0.00335148721933365,0,
00:00:00.788,-0.00228014588356018,0.00335278362035751,0,
00:00:00.789,-0.00228050351142883,0.00335249304771423,0,
00:00:00.79,-0.00228499621152878,0.00334920734167099,0,
00:00:00.791,-0.00228086113929749,0.0033443346619606,0,
00:00:00.792,-0.00228320807218552,0.00333823263645172,0,
00:00:00.793,-0.00229355692863464,0.00333070009946823,0,
00:00:00.794,-0.00229208171367645,0.00332388281822205,0,
00:00:00.795,-0.00228220224380493,0.00332446396350861,0,
00:00:00.796,-0.00227855890989304,0.00332830846309662,0,
00:00:00.797,-0.00228014588356018,0.00333385169506073,0,
00:00:00.798,-0.00227156281471252,0.00333695858716965,0,
00:00:00.799,-0.00226514786481857,0.00333255529403687,0,
00:00:00.8,-0.0022733062505722,0.00332922488451004,0,
00:00:00.801,-0.00227686017751694,0.00333070009946823,0,
00:00:00.802,-0.00227831304073334,0.00333841145038605,0,
00:00:00.803,-0.00228331983089447,0.00333930552005768,0,
00:00:00.804,-0.00228544324636459,0.00333579629659653,0,
00:00:00.805,-0.00228387862443924,0.00333937257528305,0,
00:00:00.806,-0.00228101760149002,0.00335635989904404,0,
00:00:00.807,-0.00227996706962585,0.00336690992116928,0,
00:00:00.808,-0.00228548794984818,0.00337542593479156,0,
00:00:00.809,-0.00229357928037643,0.00337082147598267,0,
00:00:00.81,-0.00231020897626877,0.00336556881666183,0,
00:00:00.811,-0.00231702625751495,0.00336769223213196,0,
00:00:00.812,-0.00231505930423737,0.0033668652176857,0,
00:00:00.813,-0.00231409817934036,0.00336288660764694,0,
00:00:00.814,-0.00231284648180008,0.00335720926523209,0,
00:00:00.815,-0.00230057537555695,0.00335468351840973,0,
00:00:00.816,-0.00229389220476151,0.00335477292537689,0,
00:00:00.817,-0.00228575617074966,0.00335611402988434,0,
00:00:00.818,-0.00227829068899155,0.00335937738418579,0,
00:00:00.819,-0.00227963179349899,0.00335770100355148,0,
00:00:00.82,-0.00227411091327667,0.00335220247507095,0,
00:00:00.821,-0.00226499140262604,0.00335128605365753,0,
00:00:00.822,-0.00226783007383347,0.003353051841259,0,
00:00:00.823,-0.00227178633213043,0.00335542112588882,0,
00:00:00.824,-0.00226885825395584,0.00335367769002914,0,
00:00:00.825,-0.00226803123950958,0.00334983319044113,0,
00:00:00.826,-0.00226376205682755,0.00334846973419189,0,
00:00:00.827,-0.00226280093193054,0.00335551053285599,0,
00:00:00.828,-0.0022720992565155,0.00335975736379623,0,
00:00:00.829,-0.00227292627096176,0.00335796922445297,0,
00:00:00.83,-0.00227370858192444,0.00335734337568283,0,
00:00:00.831,-0.00228054821491241,0.00335680693387985,0,
00:00:00.832,-0.00228696316480637,0.00335490703582764,0,
00:00:00.833,-0.00229288637638092,0.00334994494915009,0,
00:00:00.834,-0.0022989884018898,0.00334791094064713,0,
00:00:00.835,-0.00230681151151657,0.00334817916154861,0,
00:00:00.836,-0.00231322646141052,0.00335072726011276,0,
00:00:00.837,-0.00231108069419861,0.00334983319044113,0,
00:00:00.838,-0.00230417400598526,0.00334813445806503,0,
00:00:00.839,-0.00231096893548965,0.00334607809782028,0,
00:00:00.84,-0.0023118183016777,0.00334534049034119,0,
00:00:00.841,-0.0022999495267868,0.0033428817987442,0,
00:00:00.842,-0.00228841602802277,0.0033395066857338,0,
00:00:00.843,-0.00227712839841843,0.0033438429236412,0,
00:00:00.844,-0.00228358805179596,0.00335204601287842,0,
00:00:00.845,-0.0022788941860199,0.00335698574781418,0,
00:00:00.846,-0.00225142389535904,0.00335875153541565,0,
00:00:00.847,-0.00225269794464111,0.0033569410443306,0,
00:00:00.848,-0.00226863473653793,0.00335372239351273,0,
00:00:00.849,-0.00226865708827972,0.00335166603326797,0,
00:00:00.85,-0.00226322561502457,0.00335023552179337,0,
00:00:00.851,-0.00226134806871414,0.00334753096103668,0,
00:00:00.852,-0.00226166099309921,0.00333939492702484,0,
00:00:00.853,-0.0022684782743454,0.00333680212497711,0,
00:00:00.854,-0.00227357447147369,0.00333693623542786,0,
00:00:00.855,-0.00227978825569153,0.00333769619464874,0,
00:00:00.856,-0.00228253751993179,0.00334444642066956,0,
00:00:00.857,-0.0022764578461647,0.00334994494915009,0,
00:00:00.858,-0.00227426737546921,0.00335714221000671,0,
00:00:00.859,-0.00227630138397217,0.00335986912250519,0,
00:00:00.86,-0.00227276980876923,0.00335488468408585,0,
00:00:00.861,-0.00226756185293198,0.00335432589054108,0,
00:00:00.862,-0.0022704005241394,0.00335662811994553,0,
00:00:00.863,-0.00227560847997665,0.00335479527711868,0,
00:00:00.864,-0.00227987766265869,0.00335423648357391,0,
00:00:00.865,-0.00228012353181839,0.00335633754730225,0,
00:00:00.866,-0.00228260457515717,0.00335432589054108,0,
00:00:00.867,-0.00228481739759445,0.00335504114627838,0,
00:00:00.868,-0.00228584557771683,0.00335544347763062,0,
00:00:00.869,-0.00228651612997055,0.00335452705621719,0,
00:00:00.87,-0.00228752195835114,0.00335224717855453,0,
00:00:00.871,-0.00228886306285858,0.0033523365855217,0,
00:00:00.872,-0.00228910893201828,0.003353051841259,0,
00:00:00.873,-0.00228718668222427,0.00335311889648438,0,
00:00:00.874,-0.00228897482156754,0.00335501879453659,0,
00:00:00.875,-0.00228957831859589,0.00335468351840973,0,
00:00:00.876,-0.00228497385978699,0.00335459411144257,0,
00:00:00.877,-0.002287857234478,0.00335895270109177,0,
00:00:00.878,-0.00228928774595261,0.0033695250749588,0,
00:00:00.879,-0.0022909864783287,0.00337272137403488,0,
00:00:00.88,-0.00229699909687042,0.00336753576993942,0,
00:00:00.881,-0.00230113416910172,0.00336798280477524,0,
00:00:00.882,-0.00230403989553452,0.00336746871471405,0,
00:00:00.883,-0.00230131298303604,0.003365658223629,0,
00:00:00.884,-0.0023004412651062,0.00336217135190964,0,
00:00:00.885,-0.00230656564235687,0.00335204601287842,0,
00:00:00.886,-0.00230893492698669,0.00333943963050842,0,
00:00:00.887,-0.0022980272769928,0.0033327117562294,0,
00:00:00.888,-0.00229255110025406,0.0033285990357399,0,
00:00:00.889,-0.00230361521244049,0.00333530455827713,0,
00:00:00.89,-0.00230851024389267,0.00334455817937851,0,
00:00:00.891,-0.00230973958969116,0.00335423648357391,0,
00:00:00.892,-0.00230475515127182,0.00336838513612747,0,
00:00:00.893,-0.00226762890815735,0.0033775269985199,0,
00:00:00.894,-0.00225218385457993,0.00337676703929901,0,
00:00:00.895,-0.00226074457168579,0.00337182730436325,0,
00:00:00.896,-0.0022650808095932,0.0033644512295723,0,
00:00:00.897,-0.00226850062608719,0.00335508584976196,0,
00:00:00.898,-0.00227411091327667,0.00335327535867691,0,
00:00:00.899,-0.00227728486061096,0.00335439294576645,0,
00:00:00.9,-0.00227370858192444,0.00335564464330673,0,
00:00:00.901,-0.0022745355963707,0.0033591091632843,0,
00:00:00.902,-0.00227721780538559,0.00336150079965591,0,
00:00:00.903,-0.00228112936019897,0.00336463004350662,0,
00:00:00.904,-0.00228957831859589,0.00336793810129166,0,
00:00:00.905,-0.00229585915803909,0.0033610537648201,0,
00:00:00.906,-0.0022968202829361,0.00335953384637833,0,
00:00:00.907,-0.0022984966635704,0.00336165726184845,0,
00:00:00.908,-0.00230193883180618,0.00336165726184845,0,
00:00:00.909,-0.00230281054973602,0.00335770100355148,0,
00:00:00.91,-0.00229424983263016,0.00334853678941727,0,
00:00:00.911,-0.00228222459554672,0.00334549695253372,0,
00:00:00.912,-0.00228524208068848,0.00334473699331284,0,
00:00:00.913,-0.00229867547750473,0.00334496051073074,0,
00:00:00.914,-0.00230102241039276,0.00334963202476501,0,
00:00:00.915,-0.00228919833898544,0.00335919857025146,0,
00:00:00.916,-0.00227949768304825,0.00335680693387985,0,
00:00:00.917,-0.00227654725313187,0.00336143374443054,0,
00:00:00.918,-0.00228065997362137,0.00337209552526474,0,
00:00:00.919,-0.00228551030158997,0.0033763200044632,0,
00:00:00.92,-0.00228231400251389,0.00337182730436325,0,
00:00:00.921,-0.00228510797023773,0.00337059795856476,0,
00:00:00.922,-0.00228986889123917,0.00337634235620499,0,
00:00:00.923,-0.00228973478078842,0.00336659699678421,0,
00:00:00.924,-0.00229706615209579,0.00335032492876053,0,
00:00:00.925,-0.00230294466018677,0.0033484473824501,0,
00:00:00.926,-0.0023031011223793,0.0033537894487381,0,
00:00:00.927,-0.00229715555906296,0.00336134433746338,0,
00:00:00.928,-0.00229762494564056,0.0033705085515976,0,
00:00:00.929,-0.00229847431182861,0.0033777728676796,0,
00:00:00.93,-0.00229521095752716,0.00338635593652725,0,
00:00:00.931,-0.00228318572044373,0.00338990986347198,0,
00:00:00.932,-0.00228007882833481,0.00338324904441834,0,
00:00:00.933,-0.0022895336151123,0.00337978452444077,0,
00:00:00.934,-0.00230053067207336,0.00337913632392883,0,
00:00:00.935,-0.0023089125752449,0.00337989628314972,0,
00:00:00.936,-0.00231456756591797,0.00337906926870346,0,
00:00:00.937,-0.00231586396694183,0.00337989628314972,0,
00:00:00.938,-0.0023157075047493,0.00338099151849747,0,
00:00:00.939,-0.00231362879276276,0.00338105857372284,0,
00:00:00.94,-0.00229711085557938,0.00338003039360046,0,
00:00:00.941,-0.00227867066860199,0.003379225730896,0,
00:00:00.942,-0.00228559970855713,0.00337976217269897,0,
00:00:00.943,-0.00230348110198975,0.00337663292884827,0,
00:00:00.944,-0.00230636447668076,0.00337433069944382,0,
00:00:00.945,-0.00231309235095978,0.00337428599596024,0,
00:00:00.946,-0.00231561809778214,0.00337305665016174,0,
00:00:00.947,-0.0023132711648941,0.00337475538253784,0,
00:00:00.948,-0.00229892134666443,0.00337502360343933,0,
00:00:00.949,-0.00228656083345413,0.00337589532136917,0,
00:00:00.95,-0.0022893100976944,0.0033775269985199,0,
00:00:00.951,-0.00227737426757813,0.00337960571050644,0,
00:00:00.952,-0.00226588547229767,0.00338157266378403,0,
00:00:00.953,-0.00227279216051102,0.00337770581245422,0,
00:00:00.954,-0.00228671729564667,0.00337343662977219,0,
00:00:00.955,-0.00230260938405991,0.00336992740631104,0,
00:00:00.956,-0.00231508165597916,0.00336994975805283,0,
00:00:00.957,-0.00231188535690308,0.00337111204862595,0,
00:00:00.958,-0.0022972896695137,0.00337140262126923,0,
00:00:00.959,-0.00228774547576904,0.00336948037147522,0,
00:00:00.96,-0.00228709727525711,0.00337184965610504,0,
00:00:00.961,-0.00228394567966461,0.00337278842926025,0,
00:00:00.962,-0.00228381156921387,0.0033736377954483,0,
00:00:00.963,-0.00228700786828995,0.00337625294923782,0,
00:00:00.964,-0.00229188054800034,0.00337725877761841,0,
00:00:00.965,-0.0022948756814003,0.00337475538253784,0,
00:00:00.966,-0.00229965895414352,0.00337068736553192,0,
00:00:00.967,-0.00229934602975845,0.00336860865354538,0,
00:00:00.968,-0.00228437036275864,0.00336742401123047,0,
00:00:00.969,-0.0022687241435051,0.00337187200784683,0,
00:00:00.97,-0.00226881355047226,0.00337953865528107,0,
00:00:00.971,-0.00227672606706619,0.00338264554738998,0,
00:00:00.972,-0.00228184461593628,0.00338391959667206,0,
00:00:00.973,-0.00228023529052734,0.00338385254144669,0,
00:00:00.974,-0.00228112936019897,0.00338155031204224,0,
00:00:00.975,-0.0022851973772049,0.00338362902402878,0,
00:00:00.976,-0.00228220224380493,0.00338488072156906,0,
00:00:00.977,-0.00228282809257507,0.00338552892208099,0,
00:00:00.978,-0.00228526443243027,0.00338738411664963,0,
00:00:00.979,-0.00228696316480637,0.00338286906480789,0,
00:00:00.98,-0.00228633731603622,0.00338112562894821,0,
00:00:00.981,-0.00228544324636459,0.00338362902402878,0,
00:00:00.982,-0.00228363275527954,0.00338179618120193,0,
00:00:00.983,-0.00228220224380493,0.00337207317352295,0,
00:00:00.984,-0.00228338688611984,0.00336932390928268,0,
00:00:00.985,-0.0022948756814003,0.00337265431880951,0,
00:00:00.986,-0.00230124592781067,0.00337294489145279,0,
00:00:00.987,-0.00230010598897934,0.00336547940969467,0,
00:00:00.988,-0.00230406224727631,0.00335859507322311,0,
00:00:00.989,-0.00231152772903442,0.00335197895765305,0,
00:00:00.99,-0.0023145005106926,0.00335173308849335,0,
00:00:00.991,-0.00231510400772095,0.00335942208766937,0,
00:00:00.992,-0.00231485813856125,0.00336018204689026,0,
00:00:00.993,-0.00231633335351944,0.00336116552352905,0,
00:00:00.994,-0.00231830030679703,0.00337126851081848,0,
00:00:00.995,-0.00230712443590164,0.0033826008439064,0,
00:00:00.996,-0.00228586792945862,0.00338778644800186,0,
00:00:00.997,-0.00228124111890793,0.00339212268590927,0,
00:00:00.998,-0.0022922158241272,0.00339051336050034,0,
00:00:00.999,-0.00228079408407211,0.00338760763406754,0,
00:00:01,-0.00226262211799622,0.00338467955589294,0,
00:00:01.001,-0.00227538496255875,0.00338313728570938,0,
00:00:01.002,-0.00228343158960342,0.0033867135643959,0,
00:00:01.003,-0.00229062885046005,0.00339482724666595,0,
00:00:01.004,-0.00230256468057632,0.00339518487453461,0,
00:00:01.005,-0.00231072306632996,0.00338166207075119,0,
00:00:01.006,-0.00231311470270157,0.00337826460599899,0,
00:00:01.007,-0.00230828672647476,0.00338143855333328,0,
00:00:01.008,-0.002308689057827,0.00338356196880341,0,
00:00:01.009,-0.0023028776049614,0.00338367372751236,0,
00:00:01.01,-0.00227949768304825,0.00338492542505264,0,
00:00:01.011,-0.00226137042045593,0.00339004397392273,0,
00:00:01.012,-0.00226722657680511,0.0033908486366272,0,
00:00:01.013,-0.00228007882833481,0.00338910520076752,0,
00:00:01.014,-0.00228544324636459,0.00338809937238693,0,
00:00:01.015,-0.00228817015886307,0.00338385254144669,0,
00:00:01.016,-0.00229277461767197,0.00338092446327209,0,
00:00:01.017,-0.0022980272769928,0.0033765435218811,0,
00:00:01.018,-0.00230146944522858,0.00337111204862595,0,
00:00:01.019,-0.00230319052934647,0.0033705085515976,0,
00:00:01.02,-0.00230562686920166,0.00337111204862595,0,
00:00:01.021,-0.00231000781059265,0.00337258726358414,0,
00:00:01.022,-0.00231561809778214,0.00338217616081238,0,
00:00:01.023,-0.00231394171714783,0.00339341908693314,0,
00:00:01.024,-0.00230629742145538,0.00339983403682709,0,
00:00:01.025,-0.00230115652084351,0.00340504199266434,0,
00:00:01.026,-0.00229270756244659,0.00340412557125092,0,
00:00:01.027,-0.00227945297956467,0.00339695066213608,0,
00:00:01.028,-0.00226615369319916,0.00339089334011078,0,
00:00:01.029,-0.00227232277393341,0.00338959693908691,0,
00:00:01.03,-0.0022813081741333,0.00338923931121826,0,
00:00:01.031,-0.00228314101696014,0.00338888168334961,0,
00:00:01.032,-0.00228358805179596,0.00338747352361679,0,
00:00:01.033,-0.00228533148765564,0.00338628888130188,0,
00:00:01.034,-0.00228673964738846,0.00338868051767349,0,
00:00:01.035,-0.00229085236787796,0.00338952988386154,0,
00:00:01.036,-0.0022953674197197,0.00338754057884216,0,
00:00:01.037,-0.00229934602975845,0.00339004397392273,0,
00:00:01.038,-0.00230748206377029,0.00339098274707794,0,
00:00:01.039,-0.00231099128723145,0.00338754057884216,0,
00:00:01.04,-0.00231568515300751,0.00338481366634369,0,
00:00:01.041,-0.00231695920228958,0.00338514894247055,0,
00:00:01.042,-0.00230658799409866,0.00338497012853622,0,
00:00:01.043,-0.00230515748262405,0.00338362902402878,0,
00:00:01.044,-0.00230126827955246,0.00338597595691681,0,
00:00:01.045,-0.00228202342987061,0.00338778644800186,0,
00:00:01.046,-0.0022839680314064,0.00338338315486908,0,
00:00:01.047,-0.00228365510702133,0.00337973982095718,0,
00:00:01.048,-0.0022871196269989,0.00337553769350052,0,
00:00:01.049,-0.00229758024215698,0.00337643176317215,0,
00:00:01.05,-0.00230108946561813,0.00338148325681686,0,
00:00:01.051,-0.00230895727872849,0.00339066982269287,0,
00:00:01.052,-0.00231065601110458,0.00339849293231964,0,
00:00:01.053,-0.00229498744010925,0.00340526551008224,0,
00:00:01.054,-0.00228327512741089,0.00340553373098373,0,
00:00:01.055,-0.00228948891162872,0.0033983588218689,0,
00:00:01.056,-0.00229478627443314,0.00339476019144058,0,
00:00:01.057,-0.0022963285446167,0.00338836759328842,0,
00:00:01.058,-0.00230057537555695,0.00338329374790192,0,
00:00:01.059,-0.00230410695075989,0.00338110327720642,0,
00:00:01.06,-0.00229963660240173,0.00338099151849747,0,
00:00:01.061,-0.00229505449533463,0.00338125973939896,0,
00:00:01.062,-0.00228995829820633,0.00338266789913177,0,
00:00:01.063,-0.00229004770517349,0.00338407605886459,0,
00:00:01.064,-0.00228823721408844,0.00338396430015564,0,
00:00:01.065,-0.00227487087249756,0.00339104980230331,0,
00:00:01.066,-0.00227397680282593,0.00339688360691071,0,
00:00:01.067,-0.00227902829647064,0.00339730829000473,0,
00:00:01.068,-0.00228412449359894,0.00340039283037186,0,
00:00:01.069,-0.00228852778673172,0.00340097397565842,0,
00:00:01.07,-0.00229212641716003,0.00339699536561966,0,
00:00:01.071,-0.00229914486408234,0.0033932626247406,0,
00:00:01.072,-0.00229986011981964,0.00338950753211975,0,
00:00:01.073,-0.00230768322944641,0.00338640064001083,0,
00:00:01.074,-0.0023176297545433,0.0033816397190094,0,
00:00:01.075,-0.00231465697288513,0.0033777728676796,0,
00:00:01.076,-0.0023079514503479,0.00337178260087967,0,
00:00:01.077,-0.00229576975107193,0.00336849689483643,0,
00:00:01.078,-0.00227728486061096,0.00336659699678421,0,
00:00:01.079,-0.00227817893028259,0.00336588174104691,0,
00:00:01.08,-0.00228678435087204,0.00337455421686172,0,
00:00:01.081,-0.0022893100976944,0.00338635593652725,0,
00:00:01.082,-0.00228763371706009,0.00339965522289276,0,
00:00:01.083,-0.00228964537382126,0.00341208279132843,0,
00:00:01.084,-0.00229000300168991,0.00341036170721054,0,
00:00:01.085,-0.00229259580373764,0.0034058690071106,0,
00:00:01.086,-0.0022992342710495,0.00340104103088379,0,
00:00:01.087,-0.00229959189891815,0.00339281558990479,0,
00:00:01.088,-0.00230298936367035,0.00338742882013321,0,
00:00:01.089,-0.00231007486581802,0.00338535010814667,0,
00:00:01.09,-0.00232341885566711,0.00339062511920929,0,
00:00:01.091,-0.00233222544193268,0.00339663773775101,0,
00:00:01.092,-0.00232529640197754,0.0033959224820137,0,
00:00:01.093,-0.00232288241386414,0.00339118391275406,0,
00:00:01.094,-0.00230634212493896,0.00338899344205856,0,
00:00:01.095,-0.00229416042566299,0.00339330732822418,0,
00:00:01.096,-0.00229118764400482,0.00339075922966003,0,
00:00:01.097,-0.00229203701019287,0.0033862441778183,0,
00:00:01.098,-0.00229641795158386,0.00338295847177505,0,
00:00:01.099,-0.00229809433221817,0.00338767468929291,0,
00:00:01.1,-0.00229024887084961,0.00339547544717789,0,
00:00:01.101,-0.00229326635599136,0.00340157747268677,0,
00:00:01.102,-0.00230097770690918,0.00340182334184647,0,
00:00:01.103,-0.00229623913764954,0.00340001285076141,0,
00:00:01.104,-0.00228063762187958,0.00339379906654358,0,
00:00:01.105,-0.00227779895067215,0.00339033454656601,0,
00:00:01.106,-0.00228381156921387,0.00338631123304367,0,
00:00:01.107,-0.00228821486234665,0.00338476896286011,0,
00:00:01.108,-0.0022883266210556,0.00338684767484665,0,
00:00:01.109,-0.00229369103908539,0.00339339673519135,0,
00:00:01.11,-0.0023043304681778,0.00339610129594803,0,
00:00:01.111,-0.00230766087770462,0.00339686125516891,0,
00:00:01.112,-0.00230627506971359,0.00339636951684952,0,
00:00:01.113,-0.00231215357780457,0.00339221209287643,0,
00:00:01.114,-0.002308689057827,0.00338856875896454,0,
00:00:01.115,-0.00228466093540192,0.00338798761367798,0,
00:00:01.116,-0.00227493792772293,0.00339234620332718,0,
00:00:01.117,-0.00229304283857346,0.00339587777853012,0,
00:00:01.118,-0.00230144709348679,0.00339972227811813,0,
00:00:01.119,-0.00230001658201218,0.00340524315834045,0,
00:00:01.12,-0.00228734314441681,0.00340805947780609,0,
00:00:01.121,-0.00228278338909149,0.00340794771909714,0,
00:00:01.122,-0.00228841602802277,0.00340848416090012,0,
00:00:01.123,-0.00228886306285858,0.00340660661458969,0,
00:00:01.124,-0.0022859126329422,0.0034022256731987,0,
00:00:01.125,-0.00228483974933624,0.00339402258396149,0,
00:00:01.126,-0.00228846073150635,0.00339330732822418,0,
00:00:01.127,-0.00229127705097198,0.00339154154062271,0,
00:00:01.128,-0.00229585915803909,0.00338356196880341,0,
00:00:01.129,-0.0022987425327301,0.0033748671412468,0,
00:00:01.13,-0.00229715555906296,0.00337234139442444,0,
00:00:01.131,-0.00229968130588531,0.00336621701717377,0,
00:00:01.132,-0.00229630619287491,0.00336894392967224,0,
00:00:01.133,-0.00229033827781677,0.00337877869606018,0,
00:00:01.134,-0.00229013711214066,0.00339335203170776,0,
00:00:01.135,-0.00229901075363159,0.00341121107339859,0,
00:00:01.136,-0.00230629742145538,0.00341932475566864,0,
00:00:01.137,-0.00230851024389267,0.00341814011335373,0,
00:00:01.138,-0.00231018662452698,0.00340978056192398,0,
00:00:01.139,-0.00230658799409866,0.00339983403682709,0,
00:00:01.14,-0.00228770077228546,0.00339842587709427,0,
00:00:01.141,-0.00227862596511841,0.00340396910905838,0,
00:00:01.142,-0.0022849515080452,0.00340736657381058,0,
00:00:01.143,-0.00228260457515717,0.00340157747268677,0,
00:00:01.144,-0.00228264927864075,0.00339755415916443,0,
00:00:01.145,-0.00228544324636459,0.0033995658159256,0,
00:00:01.146,-0.00229015946388245,0.00340430438518524,0,
00:00:01.147,-0.00229259580373764,0.00340338796377182,0,
00:00:01.148,-0.00229304283857346,0.00339893996715546,0,
00:00:01.149,-0.0022946298122406,0.00339954346418381,0,
00:00:01.15,-0.00229751318693161,0.00340519845485687,0,
00:00:01.151,-0.00229845196008682,0.00340622663497925,0,
00:00:01.152,-0.00229646265506744,0.00340193510055542,0,
00:00:01.153,-0.00229554623365402,0.0033990740776062,0,
00:00:01.154,-0.00229956954717636,0.00339623540639877,0,
00:00:01.155,-0.00230055302381516,0.00339849293231964,0,
00:00:01.156,-0.00230178236961365,0.00340544432401657,0,
00:00:01.157,-0.00230281054973602,0.00340432673692703,0,
00:00:01.158,-0.00230207294225693,0.00340437144041061,0,
00:00:01.159,-0.00230265408754349,0.00340177863836288,0,
00:00:01.16,-0.00230549275875092,0.00340278446674347,0,
00:00:01.161,-0.00231161713600159,0.00341297686100006,0,
00:00:01.162,-0.00231919437646866,0.00342236459255219,0,
00:00:01.163,-0.00232592225074768,0.0034179612994194,0,
00:00:01.164,-0.00232605636119843,0.00340399146080017,0,
00:00:01.165,-0.00231293588876724,0.00339565426111221,0,
00:00:01.166,-0.00229252874851227,0.00339467078447342,0,
00:00:01.167,-0.00229538977146149,0.00339896231889725,0,
00:00:01.168,-0.0023084431886673,0.00340881943702698,0,
00:00:01.169,-0.00230902433395386,0.00340743362903595,0,
00:00:01.17,-0.00230580568313599,0.00340437144041061,0,
00:00:01.171,-0.00230495631694794,0.00340808182954788,0,
00:00:01.172,-0.00230873376131058,0.00341250747442245,0,
00:00:01.173,-0.00231204181909561,0.00340904295444489,0,
00:00:01.174,-0.0023094043135643,0.00340738892555237,0,
00:00:01.175,-0.00230202823877335,0.00340895354747772,0,
00:00:01.176,-0.00230048596858978,0.00341467559337616,0,
00:00:01.177,-0.00230497866868973,0.00342263281345367,0,
00:00:01.178,-0.00229892134666443,0.00342312455177307,0,
00:00:01.179,-0.00227703899145126,0.00341874361038208,0,
00:00:01.18,-0.00227299332618713,0.00341521203517914,0,
00:00:01.181,-0.00228694081306458,0.00341223925352097,0,
00:00:01.182,-0.00229856371879578,0.00341067463159561,0,
00:00:01.183,-0.00229659676551819,0.00341000407934189,0,
00:00:01.184,-0.00228124111890793,0.00340864062309265,0,
00:00:01.185,-0.00227520614862442,0.00340262800455093,0,
00:00:01.186,-0.00228336453437805,0.00339925289154053,0,
00:00:01.187,-0.00229036062955856,0.00339724123477936,0,
00:00:01.188,-0.00229424983263016,0.00339330732822418,0,
00:00:01.189,-0.00229702144861221,0.00339458137750626,0,
00:00:01.19,-0.00230220705270767,0.00339985638856888,0,
00:00:01.191,-0.00230672210454941,0.00340358912944794,0,
00:00:01.192,-0.00230783969163895,0.00340810418128967,0,
00:00:01.193,-0.00230511277914047,0.00341038405895233,0,
00:00:01.194,-0.00230321288108826,0.00340390205383301,0,
00:00:01.195,-0.00229163467884064,0.00339482724666595,0,
00:00:01.196,-0.00228738784790039,0.00339480489492416,0,
00:00:01.197,-0.00229807198047638,0.00339748710393906,0,
00:00:01.198,-0.00230231881141663,0.00339914113283157,0,
00:00:01.199,-0.00230949372053146,0.00339867174625397,0,
00:00:01.2,-0.00231568515300751,0.003400057554245,0,
00:00:01.201,-0.00230956077575684,0.00340054929256439,0,
00:00:01.202,-0.00230775028467178,0.00340320914983749,0,
00:00:01.203,-0.00230607390403748,0.00340030342340469,0,
00:00:01.204,-0.00230354815721512,0.00339348614215851,0,
00:00:01.205,-0.00229894369840622,0.00339241325855255,0,
00:00:01.206,-0.00230162590742111,0.00339797884225845,0,
00:00:01.207,-0.00230225175619125,0.00340890884399414,0,
00:00:01.208,-0.00230779498815537,0.00342131406068802,0,
00:00:01.209,-0.00231774151325226,0.00342223048210144,0,
00:00:01.21,-0.00232051312923431,0.00341778248548508,0,
00:00:01.211,-0.00231188535690308,0.00341382622718811,0,
00:00:01.212,-0.00229939073324203,0.00341653078794479,0,
00:00:01.213,-0.0022813081741333,0.00341496616601944,0,
00:00:01.214,-0.0022788941860199,0.00341304391622543,0,
00:00:01.215,-0.0022837221622467,0.00341237336397171,0,
00:00:01.216,-0.00228115171194077,0.00341203808784485,0,
00:00:01.217,-0.00227779895067215,0.0034153014421463,0,
00:00:01.218,-0.00227992236614227,0.00341733545064926,0,
00:00:01.219,-0.00228472799062729,0.00341646373271942,0,
00:00:01.22,-0.00228888541460037,0.00341255217790604,0,
00:00:01.221,-0.00229344516992569,0.00340591371059418,0,
00:00:01.222,-0.00229892134666443,0.0034043937921524,0,
00:00:01.223,-0.0023021399974823,0.00340376794338226,0,
00:00:01.224,-0.00230305641889572,0.00340260565280914,0,
00:00:01.225,-0.00230522453784943,0.00340258330106735,0,
00:00:01.226,-0.00230582803487778,0.0034012645483017,0,
00:00:01.227,-0.00230839848518372,0.00340061634778976,0,
00:00:01.228,-0.00231175124645233,0.00340300798416138,0,
00:00:01.229,-0.00231467932462692,0.00341203808784485,0,
00:00:01.23,-0.00231628865003586,0.00341121107339859,0,
00:00:01.231,-0.00231593102216721,0.00340446084737778,0,
00:00:01.232,-0.00231613218784332,0.00340153276920319,0,
00:00:01.233,-0.00231653451919556,0.00340177863836288,0,
00:00:01.234,-0.00230538100004196,0.00340258330106735,0,
00:00:01.235,-0.00229572504758835,0.00340613722801209,0,
00:00:01.236,-0.00230517983436584,0.00340712070465088,0,
00:00:01.237,-0.00230931490659714,0.00340888649225235,0,
00:00:01.238,-0.00231096893548965,0.00340501964092255,0,
00:00:01.239,-0.00230444222688675,0.00339704006910324,0,
00:00:01.24,-0.00229840725660324,0.00339163094758987,0,
00:00:01.241,-0.00229398161172867,0.00338861346244812,0,
00:00:01.242,-0.00228732079267502,0.00338657945394516,0,
00:00:01.243,-0.00228361040353775,0.00338094681501389,0,
00:00:01.244,-0.00228872895240784,0.00337960571050644,0,
00:00:01.245,-0.00229337811470032,0.00338519364595413,0,
00:00:01.246,-0.00229822844266891,0.0033935084939003,0,
00:00:01.247,-0.00229775905609131,0.00339802354574203,0,
00:00:01.248,-0.0022968202829361,0.00339853763580322,0,
00:00:01.249,-0.00230281054973602,0.00340361148118973,0,
00:00:01.25,-0.0023062527179718,0.00341887772083282,0,
00:00:01.251,-0.0023060068488121,0.00342357158660889,0,
00:00:01.252,-0.00230580568313599,0.003421850502491,0,
00:00:01.253,-0.00230348110198975,0.0034177377820015,0,
00:00:01.254,-0.00229959189891815,0.00341004878282547,0,
00:00:01.255,-0.00230218470096588,0.00340660661458969,0,
00:00:01.256,-0.00230866670608521,0.00340953469276428,0,
00:00:01.257,-0.00232489407062531,0.00340729951858521,0,
00:00:01.258,-0.00233381241559982,0.00340396910905838,0,
00:00:01.259,-0.00232963263988495,0.00339849293231964,0,
00:00:01.26,-0.00232288241386414,0.00339462608098984,0,
00:00:01.261,-0.00231879204511642,0.00338966399431229,0,
00:00:01.262,-0.00231894850730896,0.00338687002658844,0,
00:00:01.263,-0.00231599807739258,0.00339165329933167,0,
00:00:01.264,-0.00231092423200607,0.00339831411838531,0,
00:00:01.265,-0.00230768322944641,0.00340202450752258,0,
00:00:01.266,-0.00230640918016434,0.00340461730957031,0,
00:00:01.267,-0.00230859965085983,0.00340725481510162,0,
00:00:01.268,-0.00230734795331955,0.00340249389410019,0,
00:00:01.269,-0.00229925662279129,0.00339815765619278,0,
00:00:01.27,-0.00229454040527344,0.00339406728744507,0,
00:00:01.271,-0.00230012834072113,0.00339107215404511,0,
00:00:01.272,-0.00230551511049271,0.00338959693908691,0,
00:00:01.273,-0.00229847431182861,0.00338613241910934,0,
00:00:01.274,-0.00229203701019287,0.0033799409866333,0,
00:00:01.275,-0.00229666382074356,0.00337551534175873,0,
00:00:01.276,-0.00230864435434341,0.00337301194667816,0,
00:00:01.277,-0.00231999903917313,0.00337560474872589,0,
00:00:01.278,-0.00232022255659103,0.00338070094585419,0,
00:00:01.279,-0.00232855975627899,0.0033862441778183,0,
00:00:01.28,-0.00232545286417007,0.00338535010814667,0,
00:00:01.281,-0.00230779498815537,0.00339261442422867,0,
00:00:01.282,-0.0022919699549675,0.00340526551008224,0,
00:00:01.283,-0.0022633820772171,0.00340819358825684,0,
00:00:01.284,-0.0022575706243515,0.00339730829000473,0,
00:00:01.285,-0.00227956473827362,0.00339417904615402,0,
00:00:01.286,-0.00229635089635849,0.00339918583631516,0,
00:00:01.287,-0.00230589509010315,0.00340282917022705,0,
00:00:01.288,-0.00231049954891205,0.00340414792299271,0,
00:00:01.289,-0.00231534987688065,0.00340311974287033,0,
00:00:01.29,-0.00231879204511642,0.0034031867980957,0,
00:00:01.291,-0.00231362879276276,0.00341018289327621,0,
00:00:01.292,-0.00231128185987473,0.00341036170721054,0,
00:00:01.293,-0.00230354815721512,0.00340303033590317,0,
00:00:01.294,-0.00228839367628098,0.0033986046910286,0,
00:00:01.295,-0.00229422748088837,0.00340001285076141,0,
00:00:01.296,-0.00229661911725998,0.00340305268764496,0,
00:00:01.297,-0.00229210406541824,0.00340258330106735,0,
00:00:01.298,-0.00228651612997055,0.00339958816766739,0,
00:00:01.299,-0.00229601562023163,0.00339905172586441,0,
00:00:01.3,-0.002301424741745,0.00340300798416138,0,
00:00:01.301,-0.0023009330034256,0.00340580195188522,0,
00:00:01.302,-0.00230265408754349,0.00340569019317627,0,
00:00:01.303,-0.0023035928606987,0.00340524315834045,0,
00:00:01.304,-0.00230345875024796,0.00340432673692703,0,
00:00:01.305,-0.00230146944522858,0.00339945405721664,0,
00:00:01.306,-0.00230115652084351,0.00339574366807938,0,
00:00:01.307,-0.00229717791080475,0.00339317321777344,0,
00:00:01.308,-0.00229369103908539,0.00339163094758987,0,
00:00:01.309,-0.002301424741745,0.00338950753211975,0,
00:00:01.31,-0.00230585038661957,0.00338975340127945,0,
00:00:01.311,-0.00230752676725388,0.00339297205209732,0,
00:00:01.312,-0.00230395048856735,0.00339683890342712,0,
00:00:01.313,-0.00229825079441071,0.00339715182781219,0,
00:00:01.314,-0.00229306519031525,0.00339227914810181,0,
00:00:01.315,-0.00229125469923019,0.00339250266551971,0,
00:00:01.316,-0.00229992717504501,0.00340001285076141,0,
00:00:01.317,-0.00231539458036423,0.00340379029512405,0,
00:00:01.318,-0.00232422351837158,0.00340607017278671,0,
00:00:01.319,-0.0023275762796402,0.00340810418128967,0,
00:00:01.32,-0.00232860445976257,0.00340875238180161,0,
00:00:01.321,-0.00233535468578339,0.00340709835290909,0,
00:00:01.322,-0.00233390182256699,0.00340960174798965,0,
00:00:01.323,-0.00232505053281784,0.00341206043958664,0,
00:00:01.324,-0.00231599807739258,0.00341049581766129,0,
00:00:01.325,-0.00231074541807175,0.0034106969833374,0,
00:00:01.326,-0.00231011956930161,0.00340848416090012,0,
00:00:01.327,-0.00229988247156143,0.00340336561203003,0,
00:00:01.328,-0.00227688252925873,0.00340175628662109,0,
00:00:01.329,-0.00228119641542435,0.00340325385332108,0,
00:00:01.33,-0.00229590386152267,0.00340307503938675,0,
00:00:01.331,-0.00229210406541824,0.00339536368846893,0,
00:00:01.332,-0.00229192525148392,0.00338657945394516,0,
00:00:01.333,-0.00230357050895691,0.00338336080312729,0,
00:00:01.334,-0.00230790674686432,0.00338079035282135,0,
00:00:01.335,-0.00230611860752106,0.0033779963850975,0,
00:00:01.336,-0.00230555981397629,0.00337564945220947,0,
00:00:01.337,-0.00231635570526123,0.00337877869606018,0,
00:00:01.338,-0.00232677161693573,0.00338646769523621,0,
00:00:01.339,-0.00232572108507156,0.00339417904615402,0,
00:00:01.34,-0.00231874734163284,0.00340497493743896,0,
00:00:01.341,-0.00231269001960754,0.0034102275967598,0,
00:00:01.342,-0.00230618566274643,0.0034075453877449,0,
00:00:01.343,-0.00229974836111069,0.00340995937585831,0,
00:00:01.344,-0.00229509919881821,0.00341429561376572,0,
00:00:01.345,-0.00229304283857346,0.00340830534696579,0,
00:00:01.346,-0.00229386985301971,0.0033971294760704,0,
00:00:01.347,-0.00229666382074356,0.00338935106992722,0,
00:00:01.348,-0.00229599326848984,0.0033881887793541,0,
00:00:01.349,-0.00229308754205704,0.00338803231716156,0,
00:00:01.35,-0.00229523330926895,0.0033859983086586,0,
00:00:01.351,-0.00229744613170624,0.00338311493396759,0,
00:00:01.352,-0.00230406224727631,0.00339053571224213,0,
00:00:01.353,-0.00231193006038666,0.00340177863836288,0,
00:00:01.354,-0.00231474637985229,0.00340548902750015,0,
00:00:01.355,-0.00231403112411499,0.00340866297483444,0,
00:00:01.356,-0.00231561809778214,0.00341000407934189,0,
00:00:01.357,-0.00233110785484314,0.00340765714645386,0,
00:00:01.358,-0.00234536826610565,0.00341304391622543,0,
00:00:01.359,-0.00234970450401306,0.00341516733169556,0,
00:00:01.36,-0.00235489010810852,0.00341007113456726,0,
00:00:01.361,-0.00235462188720703,0.0034029632806778,0,
00:00:01.362,-0.00235522538423538,0.00339784473180771,0,
00:00:01.363,-0.00234434008598328,0.00338827818632126,0,
00:00:01.364,-0.00229930132627487,0.00337439775466919,0,
00:00:01.365,-0.00228039175271988,0.00336147844791412,0,
00:00:01.366,-0.00228126347064972,0.0033600926399231,0,
00:00:01.367,-0.00226874649524689,0.00337830930948257,0,
00:00:01.368,-0.00227279216051102,0.00339042395353317,0,
00:00:01.369,-0.00228600203990936,0.00340164452791214,0,
00:00:01.37,-0.0022914782166481,0.00341463088989258,0,
00:00:01.371,-0.00229091942310333,0.00342806428670883,0,
00:00:01.372,-0.00229315459728241,0.00342200696468353,0,
00:00:01.373,-0.0022895336151123,0.00340452790260315,0,
00:00:01.374,-0.00228696316480637,0.00339896231889725,0,
00:00:01.375,-0.00229369103908539,0.00340258330106735,0,
00:00:01.376,-0.00229769200086594,0.00340504199266434,0,
00:00:01.377,-0.00229856371879578,0.00340725481510162,0,
00:00:01.378,-0.00229804962873459,0.00341062992811203,0,
00:00:01.379,-0.00230169296264648,0.00341237336397171,0,
00:00:01.38,-0.00230424106121063,0.00340946763753891,0,
00:00:01.381,-0.00230826437473297,0.00340647250413895,0,
00:00:01.382,-0.00231054425239563,0.00340676307678223,0,
00:00:01.383,-0.0023137629032135,0.00340341031551361,0,
00:00:01.384,-0.00231897085905075,0.00339949876070023,0,
00:00:01.385,-0.00231729447841644,0.0034002810716629,0,
00:00:01.386,-0.00231293588876724,0.00340079516172409,0,
00:00:01.387,-0.0023157075047493,0.00339929759502411,0,
00:00:01.388,-0.0023212730884552,0.00339697301387787,0,
00:00:01.389,-0.00232534110546112,0.00339118391275406,0,
00:00:01.39,-0.00232505053281784,0.00339306145906448,0,
00:00:01.391,-0.00232064723968506,0.00339619070291519,0,
00:00:01.392,-0.00230500102043152,0.00339686125516891,0,
00:00:01.393,-0.00229252874851227,0.0033973753452301,0,
00:00:01.394,-0.00230397284030914,0.00340189039707184,0,
00:00:01.395,-0.00231474637985229,0.00340810418128967,0,
00:00:01.396,-0.0023166686296463,0.00341232866048813,0,
00:00:01.397,-0.00230980664491653,0.00341020524501801,0,
00:00:01.398,-0.00230410695075989,0.00340864062309265,0,
00:00:01.399,-0.00230198353528976,0.00340370088815689,0,
00:00:01.4,-0.002304308116436,0.00340379029512405,0,
00:00:01.401,-0.00230911374092102,0.00340495258569717,0,
00:00:01.402,-0.00231456756591797,0.003401979804039,0,
00:00:01.403,-0.00232122838497162,0.00340110808610916,0,
00:00:01.404,-0.00232395529747009,0.00340352207422256,0,
00:00:01.405,-0.0023244246840477,0.00340481847524643,0,
00:00:01.406,-0.00231906026601791,0.00340162217617035,0,
00:00:01.407,-0.00231579691171646,0.00339581072330475,0,
00:00:01.408,-0.00231009721755981,0.00339292734861374,0,
00:00:01.409,-0.00229970365762711,0.00339138507843018,0,
00:00:01.41,-0.00229912251234055,0.00339549779891968,0,
00:00:01.411,-0.00230582803487778,0.00339704006910324,0,
00:00:01.412,-0.00230980664491653,0.00339417904615402,0,
00:00:01.413,-0.00231184065341949,0.00339357554912567,0,
00:00:01.414,-0.00230390578508377,0.00339536368846893,0,
00:00:01.415,-0.00230158120393753,0.00339594483375549,0,
00:00:01.416,-0.00231199711561203,0.00339636951684952,0,
00:00:01.417,-0.00232712924480438,0.00339498370885849,0,
00:00:01.418,-0.00234105437994003,0.003394715487957,0,
00:00:01.419,-0.00234664231538773,0.00339337438344955,0,
00:00:01.42,-0.00234539061784744,0.00339406728744507,0,
00:00:01.421,-0.00234583765268326,0.00340117514133453,0,
00:00:01.422,-0.00235462188720703,0.00340582430362701,0,
00:00:01.423,-0.00234029442071915,0.00340875238180161,0,
00:00:01.424,-0.00231669098138809,0.00340797007083893,0,
00:00:01.425,-0.00231382995843887,0.00339697301387787,0,
00:00:01.426,-0.00231695920228958,0.00338559597730637,0,
00:00:01.427,-0.00231847912073135,0.00337591767311096,0,
00:00:01.428,-0.00231398642063141,0.00336894392967224,0,
00:00:01.429,-0.00230882316827774,0.00336889922618866,0,
00:00:01.43,-0.00230656564235687,0.00337918102741241,0,
00:00:01.431,-0.00230752676725388,0.0033896192908287,0,
00:00:01.432,-0.00230880081653595,0.00339417904615402,0,
00:00:01.433,-0.00231045484542847,0.00339480489492416,0,
00:00:01.434,-0.00230962783098221,0.00339869409799576,0,
00:00:01.435,-0.00231275707483292,0.00340050458908081,0,
00:00:01.436,-0.00231318175792694,0.00339733064174652,0,
00:00:01.437,-0.00231003016233444,0.00339498370885849,0,
00:00:01.438,-0.00230623036623001,0.00339502841234207,0,
00:00:01.439,-0.00230187177658081,0.00339927524328232,0,
00:00:01.44,-0.0022994801402092,0.00340680778026581,0,
00:00:01.441,-0.0023077055811882,0.00340448319911957,0,
00:00:01.442,-0.00231146067380905,0.00340262800455093,0,
00:00:01.443,-0.00230754911899567,0.00340408086776733,0,
00:00:01.444,-0.00229760259389877,0.00340629369020462,0,
00:00:01.445,-0.00230386108160019,0.00340772420167923,0,
00:00:01.446,-0.00231476873159409,0.00340381264686584,0,
00:00:01.447,-0.00231731683015823,0.00340155512094498,0,
00:00:01.448,-0.00231380760669708,0.00339733064174652,0,
00:00:01.449,-0.00231096893548965,0.00339509546756744,0,
00:00:01.45,-0.00231467932462692,0.00339518487453461,0,
00:00:01.451,-0.00232440233230591,0.00339518487453461,0,
00:00:01.452,-0.00233966857194901,0.00339668244123459,0,
00:00:01.453,-0.00234735757112503,0.00339174270629883,0,
00:00:01.454,-0.00235339254140854,0.00338400900363922,0,
00:00:01.455,-0.00235927104949951,0.0033818855881691,0,
00:00:01.456,-0.00236121565103531,0.00338110327720642,0,
00:00:01.457,-0.00233714282512665,0.00337719172239304,0,
00:00:01.458,-0.00229047238826752,0.00337714701890945,0,
00:00:01.459,-0.00226548314094543,0.00338041037321091,0,
00:00:01.46,-0.00228338688611984,0.00338447839021683,0,
00:00:01.461,-0.00230030715465546,0.00338407605886459,0,
00:00:01.462,-0.00230763852596283,0.00338184088468552,0,
00:00:01.463,-0.00230497866868973,0.0033816397190094,0,
00:00:01.464,-0.00230973958969116,0.00338074564933777,0,
00:00:01.465,-0.00231260061264038,0.00338072329759598,0,
00:00:01.466,-0.00231282413005829,0.00339715182781219,0,
00:00:01.467,-0.00231512635946274,0.00341192632913589,0,
00:00:01.468,-0.00231955200433731,0.00341762602329254,0,
00:00:01.469,-0.00232138484716415,0.00340714305639267,0,
00:00:01.47,-0.00231590867042542,0.00340166687965393,0,
00:00:01.471,-0.00230920314788818,0.00340235978364944,0,
00:00:01.472,-0.00228707492351532,0.00340010225772858,0,
00:00:01.473,-0.0022820457816124,0.0034036785364151,0,
00:00:01.474,-0.00229599326848984,0.00340508669614792,0,
00:00:01.475,-0.00230611860752106,0.00340940058231354,0,
00:00:01.476,-0.00231087952852249,0.00341782718896866,0,
00:00:01.477,-0.00231103599071503,0.0034170001745224,0,
00:00:01.478,-0.00229858607053757,0.00341071933507919,0,
00:00:01.479,-0.00229746848344803,0.003408282995224,0,
00:00:01.48,-0.00230254232883453,0.00340738892555237,0,
00:00:01.481,-0.00230493396520615,0.00340385735034943,0,
00:00:01.482,-0.00231020897626877,0.0033988282084465,0,
00:00:01.483,-0.00231644511222839,0.00339330732822418,0,
00:00:01.484,-0.00232493877410889,0.0033908486366272,0,
00:00:01.485,-0.0023343488574028,0.00338754057884216,0,
00:00:01.486,-0.00233669579029083,0.00338581949472427,0,
00:00:01.487,-0.0023389533162117,0.00338608771562576,0,
00:00:01.488,-0.00234916806221008,0.00338783115148544,0,
00:00:01.489,-0.00234454125165939,0.00339697301387787,0,
00:00:01.49,-0.0023210272192955,0.0034070760011673,0,
00:00:01.491,-0.00230855494737625,0.00340698659420013,0,
00:00:01.492,-0.00230522453784943,0.00340374559164047,0,
00:00:01.493,-0.00229733437299728,0.00340486317873001,0,
00:00:01.494,-0.00229281932115555,0.00340694189071655,0,
00:00:01.495,-0.00230258703231812,0.00341078639030457,0,
00:00:01.496,-0.00230897963047028,0.003414586186409,0,
00:00:01.497,-0.00231561809778214,0.00341449677944183,0,
00:00:01.498,-0.00231930613517761,0.00341451913118362,0,
00:00:01.499,-0.00231919437646866,0.00341328978538513,0,
00:00:01.5,-0.00232243537902832,0.00341179221868515,0,
00:00:01.501,-0.00230864435434341,0.00340830534696579,0,
00:00:01.502,-0.00229612737894058,0.00340759009122849,0,
00:00:01.503,-0.00230138003826141,0.00340638309717178,0,
00:00:01.504,-0.00231342762708664,0.00340267270803452,0,
00:00:01.505,-0.00232192128896713,0.00339900702238083,0,
00:00:01.506,-0.00231020897626877,0.00339818000793457,0,
00:00:01.507,-0.00229664146900177,0.00339493900537491,0,
00:00:01.508,-0.00231338292360306,0.00339172035455704,0,
00:00:01.509,-0.00233220309019089,0.00339297205209732,0,
00:00:01.51,-0.00233998149633408,0.00339650362730026,0,
00:00:01.511,-0.0023338571190834,0.00340571254491806,0,
00:00:01.512,-0.00231590867042542,0.00341007113456726,0,
00:00:01.513,-0.00231593102216721,0.00340776890516281,0,
00:00:01.514,-0.00231105834245682,0.00340957939624786,0,
00:00:01.515,-0.00229378044605255,0.00341241806745529,0,
00:00:01.516,-0.00229512155056,0.0034102275967598,0,
00:00:01.517,-0.00230370461940765,0.00340280681848526,0,
00:00:01.518,-0.00231193006038666,0.00339844822883606,0,
00:00:01.519,-0.00231237709522247,0.00339451432228088,0,
00:00:01.52,-0.00230538100004196,0.00339362025260925,0,
00:00:01.521,-0.00230783969163895,0.00339777767658234,0,
00:00:01.522,-0.00231436640024185,0.00340651720762253,0,
00:00:01.523,-0.00230846554040909,0.00341299921274185,0,
00:00:01.524,-0.00230573862791061,0.00341109931468964,0,
00:00:01.525,-0.0023101419210434,0.00340975821018219,0,
00:00:01.526,-0.00231389701366425,0.00340940058231354,0,
00:00:01.527,-0.00231803208589554,0.00340099632740021,0,
00:00:01.528,-0.00232259184122086,0.00338959693908691,0,
00:00:01.529,-0.00232154130935669,0.00338535010814667,0,
00:00:01.53,-0.00231995433568954,0.00338530540466309,0,
00:00:01.531,-0.0023125559091568,0.00338537245988846,0,
00:00:01.532,-0.00230779498815537,0.00338246673345566,0,
00:00:01.533,-0.00230665504932404,0.00339028984308243,0,
00:00:01.534,-0.00230897963047028,0.00340546667575836,0,
00:00:01.535,-0.00231758505105972,0.00340727716684341,0,
00:00:01.536,-0.00231897085905075,0.00340180099010468,0,
00:00:01.537,-0.00231195241212845,0.0034048855304718,0,
00:00:01.538,-0.00231488049030304,0.00340468436479568,0,
00:00:01.539,-0.00231850147247314,0.00340162217617035,0,
00:00:01.54,-0.00231771916151047,0.00340280681848526,0,
00:00:01.541,-0.00230750441551209,0.00340267270803452,0,
00:00:01.542,-0.00227462500333786,0.0034039244055748,0,
00:00:01.543,-0.00227551907300949,0.0034065842628479,0,
00:00:01.544,-0.00229315459728241,0.00340381264686584,0,
00:00:01.545,-0.00230370461940765,0.00339802354574203,0,
00:00:01.546,-0.00230817496776581,0.00339498370885849,0,
00:00:01.547,-0.00231163948774338,0.00339178740978241,0,
00:00:01.548,-0.00231429934501648,0.00338856875896454,0,
00:00:01.549,-0.00230973958969116,0.00338322669267654,0,
00:00:01.55,-0.00230439752340317,0.00338318198919296,0,
00:00:01.551,-0.00229863077402115,0.00338803231716156,0,
00:00:01.552,-0.00230088829994202,0.00339534133672714,0,
00:00:01.553,-0.00231222063302994,0.00340061634778976,0,
00:00:01.554,-0.00231939554214478,0.00340379029512405,0,
00:00:01.555,-0.00231365114450455,0.00340805947780609,0,
00:00:01.556,-0.00230294466018677,0.00341534614562988,0,
00:00:01.557,-0.00230821967124939,0.00342404097318649,0,
00:00:01.558,-0.00230980664491653,0.00342328101396561,0,
00:00:01.559,-0.00230180472135544,0.00342381745576859,0,
00:00:01.56,-0.00229883193969727,0.00342283397912979,0,
00:00:01.561,-0.00229565799236298,0.00341514497995377,0,
00:00:01.562,-0.00229234993457794,0.00340649485588074,0,
00:00:01.563,-0.00230041891336441,0.00340291857719421,0,
00:00:01.564,-0.00230672210454941,0.00340363383293152,0,
00:00:01.565,-0.00230942666530609,0.00340839475393295,0,
00:00:01.566,-0.00231374055147171,0.00341451913118362,0,
00:00:01.567,-0.00231702625751495,0.00341704487800598,0,
00:00:01.568,-0.00232210010290146,0.0034140944480896,0,
00:00:01.569,-0.00232493877410889,0.0034121498465538,0,
00:00:01.57,-0.00232404470443726,0.00340691953897476,0,
00:00:01.571,-0.00231805443763733,0.00339961051940918,0,
00:00:01.572,-0.00231208652257919,0.0033959224820137,0,
00:00:01.573,-0.00230437517166138,0.00339487195014954,0,
00:00:01.574,-0.00229717791080475,0.00339227914810181,0,
00:00:01.575,-0.00229521095752716,0.00338765233755112,0,
00:00:01.576,-0.00230100005865097,0.00339147448539734,0,
00:00:01.577,-0.00230540335178375,0.00339976698160172,0,
00:00:01.578,-0.00230792909860611,0.00341380387544632,0,
00:00:01.579,-0.00230792909860611,0.00342381745576859,0,
00:00:01.58,-0.00230971723794937,0.00342721492052078,0,
00:00:01.581,-0.00231405347585678,0.00342319160699844,0,
00:00:01.582,-0.00232167541980743,0.00342247635126114,0,
00:00:01.583,-0.00232674926519394,0.00342048704624176,0,
00:00:01.584,-0.00232762098312378,0.00341659784317017,0,
00:00:01.585,-0.00232956558465958,0.00341753661632538,0,
00:00:01.586,-0.00233041495084763,0.00341695547103882,0,
00:00:01.587,-0.00232891738414764,0.00341548025608063,0,
00:00:01.588,-0.00232370942831039,0.00341116636991501,0,
00:00:01.589,-0.00231566280126572,0.00340933352708817,0,
00:00:01.59,-0.00231438875198364,0.00341170281171799,0,
00:00:01.591,-0.00231738388538361,0.00341007113456726,0,
00:00:01.592,-0.00231729447841644,0.00341152399778366,0,
00:00:01.593,-0.00231479108333588,0.00340975821018219,0,
00:00:01.594,-0.00231680274009705,0.00340750068426132,0,
00:00:01.595,-0.00231767445802689,0.00340770184993744,0,
00:00:01.596,-0.0023166686296463,0.00340805947780609,0,
00:00:01.597,-0.00231758505105972,0.00340821593999863,0,
00:00:01.598,-0.00232049077749252,0.0034075453877449,0,
00:00:01.599,-0.00232116132974625,0.00340774655342102,0,
00:00:01.6,-0.00232844799757004,0.00340788066387177,0,
00:00:01.601,-0.00233021378517151,0.00340743362903595,0,
00:00:01.602,-0.002316914498806,0.00340767949819565,0,
00:00:01.603,-0.00232002139091492,0.00340850651264191,0,
00:00:01.604,-0.00231809914112091,0.00340966880321503,0,
00:00:01.605,-0.00230151414871216,0.0034094899892807,0,
00:00:01.606,-0.00229990482330322,0.00340694189071655,0,
00:00:01.607,-0.002309650182724,0.00340108573436737,0,
00:00:01.608,-0.0023157075047493,0.00339268147945404,0,
00:00:01.609,-0.00232002139091492,0.00338546186685562,0,
00:00:01.61,-0.00232471525669098,0.00338079035282135,0,
00:00:01.611,-0.0023154616355896,0.00338210910558701,0,
00:00:01.612,-0.00231148302555084,0.00338883697986603,0,
00:00:01.613,-0.00232337415218353,0.00339708477258682,0,
00:00:01.614,-0.00232458114624023,0.00340068340301514,0,
00:00:01.615,-0.00231834501028061,0.00339502841234207,0,
00:00:01.616,-0.00231906026601791,0.00339192152023315,0,
00:00:01.617,-0.00231342762708664,0.00339391082525253,0,
00:00:01.618,-0.00231099128723145,0.00339742004871368,0,
00:00:01.619,-0.00231648981571198,0.00339420139789581,0,
00:00:01.62,-0.00232178717851639,0.00339312851428986,0,
00:00:01.621,-0.00232373178005219,0.00339797884225845,0,
00:00:01.622,-0.00232507288455963,0.00340548902750015,0,
00:00:01.623,-0.00232433527708054,0.00341644138097763,0,
00:00:01.624,-0.00231065601110458,0.00342227518558502,0,
00:00:01.625,-0.00230701267719269,0.00342102348804474,0,
00:00:01.626,-0.00231454521417618,0.00341353565454483,0,
00:00:01.627,-0.00232098251581192,0.00341351330280304,0,
00:00:01.628,-0.00232847034931183,0.00341463088989258,0,
00:00:01.629,-0.00233079493045807,0.00341134518384933,0,
00:00:01.63,-0.00233379006385803,0.00341485440731049,0,
00:00:01.631,-0.0023338571190834,0.00341615080833435,0,
00:00:01.632,-0.00232341885566711,0.00341925770044327,0,
00:00:01.633,-0.00231796503067017,0.00342182815074921,0,
00:00:01.634,-0.0023125559091568,0.00342359393835068,0,
00:00:01.635,-0.00229550153017044,0.00341805070638657,0,
00:00:01.636,-0.00229892134666443,0.00341308861970901,0,
00:00:01.637,-0.00230958312749863,0.00341454148292542,0,
00:00:01.638,-0.00231514871120453,0.00341621786355972,0,
00:00:01.639,-0.00231937319040298,0.00341818481683731,0,
00:00:01.64,-0.00232415646314621,0.00342021882534027,0,
00:00:01.641,-0.00232728570699692,0.00342390686273575,0,
00:00:01.642,-0.00232952088117599,0.00342681258916855,0,
00:00:01.643,-0.00233305245637894,0.00342247635126114,0,
00:00:01.644,-0.00233624875545502,0.00341776013374329,0,
00:00:01.645,-0.0023396909236908,0.00341445207595825,0,
00:00:01.646,-0.0023379921913147,0.00341049581766129,0,
00:00:01.647,-0.00233124196529388,0.00340526551008224,0,
00:00:01.648,-0.00232125073671341,0.00340095162391663,0,
00:00:01.649,-0.00231447815895081,0.00339818000793457,0,
00:00:01.65,-0.00231108069419861,0.00339961051940918,0,
00:00:01.651,-0.00230913609266281,0.00340705364942551,0,
00:00:01.652,-0.00231336057186127,0.00341362506151199,0,
00:00:01.653,-0.00231805443763733,0.00342106819152832,0,
00:00:01.654,-0.00231903791427612,0.0034245103597641,0,
00:00:01.655,-0.00231698155403137,0.00342379510402679,0,
00:00:01.656,-0.00230678915977478,0.00342088937759399,0,
00:00:01.657,-0.00230209529399872,0.00341793894767761,0,
00:00:01.658,-0.00230973958969116,0.00341831892728806,0,
00:00:01.659,-0.00232507288455963,0.0034160390496254,0,
00:00:01.66,-0.00233327597379684,0.0034123957157135,0,
00:00:01.661,-0.00233347713947296,0.00340774655342102,0,
00:00:01.662,-0.00233488529920578,0.00340113043785095,0,
00:00:01.663,-0.00233450531959534,0.00339898467063904,0,
00:00:01.664,-0.00232630223035812,0.00339813530445099,0,
00:00:01.665,-0.00232214480638504,0.00339764356613159,0,
00:00:01.666,-0.00232469290494919,0.00340012460947037,0,
00:00:01.667,-0.00232650339603424,0.00340622663497925,0,
00:00:01.668,-0.00233446061611176,0.00341163575649261,0,
00:00:01.669,-0.00233542174100876,0.0034077912569046,0,
00:00:01.67,-0.00232064723968506,0.00340273976325989,0,
00:00:01.671,-0.00231814384460449,0.00341042876243591,0,
00:00:01.672,-0.00232574343681335,0.00341809540987015,0,
00:00:01.673,-0.00233486294746399,0.00341782718896866,0,
00:00:01.674,-0.00232625752687454,0.00342202931642532,0,
00:00:01.675,-0.00230607390403748,0.00342739373445511,0,
00:00:01.676,-0.00230947136878967,0.00342535972595215,0,
00:00:01.677,-0.00230933725833893,0.00342361629009247,0,
00:00:01.678,-0.00230701267719269,0.00342569500207901,0,
00:00:01.679,-0.00230435281991959,0.00342435389757156,0,
00:00:01.68,-0.00229825079441071,0.00342314690351486,0,
00:00:01.681,-0.00230278819799423,0.00342366099357605,0,
00:00:01.682,-0.002308689057827,0.00342106819152832,0,
00:00:01.683,-0.00230996310710907,0.00341170281171799,0,
00:00:01.684,-0.00230969488620758,0.00340618193149567,0,
00:00:01.685,-0.00231217592954636,0.00340477377176285,0,
00:00:01.686,-0.00231555104255676,0.00340347737073898,0,
00:00:01.687,-0.0023164227604866,0.00340314209461212,0,
00:00:01.688,-0.0023183673620224,0.00340604782104492,0,
00:00:01.689,-0.00232120603322983,0.00340995937585831,0,
00:00:01.69,-0.00232750922441483,0.00341726839542389,0,
00:00:01.691,-0.00233455002307892,0.00342359393835068,0,
00:00:01.692,-0.00233475118875504,0.00341760367155075,0,
00:00:01.693,-0.00232773274183273,0.00340801477432251,0,
00:00:01.694,-0.0023166686296463,0.0034075453877449,0,
00:00:01.695,-0.00231769680976868,0.00340870767831802,0,
00:00:01.696,-0.00232500582933426,0.00340906530618668,0,
00:00:01.697,-0.00233171135187149,0.00340890884399414,0,
00:00:01.698,-0.00233291834592819,0.0034102275967598,0,
00:00:01.699,-0.00233206897974014,0.00341431796550751,0,
00:00:01.7,-0.00233021378517151,0.00342363864183426,0,
00:00:01.701,-0.00232359766960144,0.00342359393835068,0,
00:00:01.702,-0.00231405347585678,0.00341968238353729,0,
00:00:01.703,-0.00231624394655228,0.00341375917196274,0,
00:00:01.704,-0.00231733918190002,0.00341004878282547,0,
00:00:01.705,-0.00232288241386414,0.00340940058231354,0,
00:00:01.706,-0.00233045965433121,0.00340258330106735,0,
00:00:01.707,-0.00233776867389679,0.00339500606060028,0,
00:00:01.708,-0.00234067440032959,0.00339366495609283,0,
00:00:01.709,-0.0023382380604744,0.00339726358652115,0,
00:00:01.71,-0.00232458114624023,0.00340915471315384,0,
00:00:01.711,-0.00232194364070892,0.00342033058404922,0,
00:00:01.712,-0.00232712924480438,0.00342428684234619,0,
00:00:01.713,-0.00233394652605057,0.00342587381601334,0,
00:00:01.714,-0.00233758985996246,0.00343094766139984,0,
00:00:01.715,-0.00232746452093124,0.00343061238527298,0,
00:00:01.716,-0.00230636447668076,0.00342687964439392,0,
00:00:01.717,-0.00229509919881821,0.00342363864183426,0,
00:00:01.718,-0.0023050457239151,0.00342198461294174,0,
00:00:01.719,-0.00231099128723145,0.00342095643281937,0,
00:00:01.72,-0.00229661911725998,0.00342390686273575,0,
00:00:01.721,-0.00228287279605865,0.00343262404203415,0,
00:00:01.722,-0.00228834897279739,0.0034443587064743,0,
00:00:01.723,-0.00229404866695404,0.00344576686620712,0,
00:00:01.724,-0.00229652971029282,0.00343979895114899,0,
00:00:01.725,-0.00230303406715393,0.00343423336744308,0,
00:00:01.726,-0.00231852382421494,0.00343027710914612,0,
00:00:01.727,-0.00232753157615662,0.00342587381601334,0,
00:00:01.728,-0.00233021378517151,0.00342296808958054,0,
00:00:01.729,-0.00232706218957901,0.0034206435084343,0,
00:00:01.73,-0.00232379883527756,0.00341905653476715,0,
00:00:01.731,-0.002325139939785,0.00341787189245224,0,
00:00:01.732,-0.0023297443985939,0.00341545790433884,0,
00:00:01.733,-0.00233045965433121,0.00341641902923584,0,
00:00:01.734,-0.00233054906129837,0.00341134518384933,0,
00:00:01.735,-0.00233209133148193,0.00340242683887482,0,
00:00:01.736,-0.00232764333486557,0.00340334326028824,0,
00:00:01.737,-0.00230987370014191,0.00340776890516281,0,
00:00:01.738,-0.00229863077402115,0.00341170281171799,0,
00:00:01.739,-0.00230193883180618,0.00341436266899109,0,
00:00:01.74,-0.0023057833313942,0.00341606140136719,0,
00:00:01.741,-0.00231184065341949,0.00341787189245224,0,
00:00:01.742,-0.00231818854808807,0.00342345982789993,0,
00:00:01.743,-0.00231610983610153,0.00342683494091034,0,
00:00:01.744,-0.00230889022350311,0.003422811627388,0,
00:00:01.745,-0.00230513513088226,0.003422811627388,0,
00:00:01.746,-0.00230855494737625,0.003423772752285,0,
00:00:01.747,-0.00231367349624634,0.00342095643281937,0,
00:00:01.748,-0.00230627506971359,0.00342643260955811,0,
00:00:01.749,-0.00229666382074356,0.0034310594201088,0,
00:00:01.75,-0.00230102241039276,0.00342978537082672,0,
00:00:01.751,-0.00230573862791061,0.00343097001314163,0,
00:00:01.752,-0.00230728089809418,0.0034305676817894,0,
00:00:01.753,-0.00230846554040909,0.00342576205730438,0,
00:00:01.754,-0.00231222063302994,0.00341957062482834,0,
00:00:01.755,-0.00231315940618515,0.00341659784317017,0,
00:00:01.756,-0.00231177359819412,0.00342198461294174,0,
00:00:01.757,-0.00231157243251801,0.00342415273189545,0,
00:00:01.758,-0.00231648981571198,0.00342587381601334,0,
00:00:01.759,-0.00231881439685822,0.00342585146427155,0,
00:00:01.76,-0.00231237709522247,0.00342390686273575,0,
00:00:01.761,-0.00230240821838379,0.00342375040054321,0,
00:00:01.762,-0.00229992717504501,0.00342113524675369,0,
00:00:01.763,-0.00230321288108826,0.00341717898845673,0,
00:00:01.764,-0.00230618566274643,0.00341212749481201,0,
00:00:01.765,-0.0023108571767807,0.00340850651264191,0,
00:00:01.766,-0.00231349468231201,0.00340703129768372,0,
00:00:01.767,-0.00231794267892838,0.00340857356786728,0,
00:00:01.768,-0.00232473760843277,0.00340414792299271,0,
00:00:01.769,-0.00232771039009094,0.00339961051940918,0,
00:00:01.77,-0.002330482006073,0.00340329855680466,0,
00:00:01.771,-0.00232435762882233,0.00340510904788971,0,
00:00:01.772,-0.00230278819799423,0.00340083986520767,0,
00:00:01.773,-0.00230372697114944,0.00340341031551361,0,
00:00:01.774,-0.00230343639850616,0.00341067463159561,0,
00:00:01.775,-0.00229699909687042,0.0034140944480896,0,
00:00:01.776,-0.00229751318693161,0.00341398268938065,0,
00:00:01.777,-0.00230272114276886,0.00341322273015976,0,
00:00:01.778,-0.00230234116315842,0.00341223925352097,0,
00:00:01.779,-0.00230111181735992,0.00341141223907471,0,
00:00:01.78,-0.00230336934328079,0.00341664254665375,0,
00:00:01.781,-0.00230627506971359,0.0034206435084343,0,
00:00:01.782,-0.00230895727872849,0.00342699140310287,0,
00:00:01.783,-0.00231510400772095,0.00343398749828339,0,
00:00:01.784,-0.00232087075710297,0.00343117117881775,0,
00:00:01.785,-0.00232985615730286,0.00342406332492828,0,
00:00:01.786,-0.00234237313270569,0.00341688841581345,0,
00:00:01.787,-0.00234775990247726,0.00341306626796722,0,
00:00:01.788,-0.00235245376825333,0.0034138485789299,0,
00:00:01.789,-0.00235846638679504,0.00341726839542389,0,
00:00:01.79,-0.00236555188894272,0.00341693311929703,0,
00:00:01.791,-0.00236937403678894,0.0034177377820015,0,
00:00:01.792,-0.00236948579549789,0.00341878831386566,0,
00:00:01.793,-0.00235462188720703,0.00341206043958664,0,
00:00:01.794,-0.00233215838670731,0.00340687483549118,0,
00:00:01.795,-0.00231420993804932,0.00340390205383301,0,
00:00:01.796,-0.00229892134666443,0.0034077912569046,0,
00:00:01.797,-0.00228673964738846,0.00341510027647018,0,
00:00:01.798,-0.00228535383939743,0.00341670960187912,0,
00:00:01.799,-0.00227496027946472,0.00341427326202393,0,
00:00:01.8,-0.0022827610373497,0.00341863185167313,0,
00:00:01.801,-0.0023009330034256,0.00342573970556259,0,
00:00:01.802,-0.00230441987514496,0.0034295842051506,0,
00:00:01.803,-0.00229047238826752,0.00342907011508942,0,
00:00:01.804,-0.00228888541460037,0.00342922657728195,0,
00:00:01.805,-0.00229103118181229,0.00342808663845062,0,
00:00:01.806,-0.00228653848171234,0.00342176109552383,0,
00:00:01.807,-0.00228584557771683,0.00341733545064926,0,
00:00:01.808,-0.00228846073150635,0.0034140944480896,0,
00:00:01.809,-0.0022963285446167,0.00341067463159561,0,
00:00:01.81,-0.00230790674686432,0.00340837240219116,0,
00:00:01.811,-0.00232292711734772,0.00340759009122849,0,
00:00:01.812,-0.00232775509357452,0.00340812653303146,0,
00:00:01.813,-0.00232668220996857,0.00341371446847916,0,
00:00:01.814,-0.00232529640197754,0.00341890007257462,0,
00:00:01.815,-0.00231606513261795,0.00341744720935822,0,
00:00:01.816,-0.00230685621500015,0.00341349095106125,0,
00:00:01.817,-0.00230629742145538,0.00340933352708817,0,
00:00:01.818,-0.00230587273836136,0.00340859591960907,0,
00:00:01.819,-0.00230484455823898,0.00340642780065537,0,
00:00:01.82,-0.00230596214532852,0.00340517610311508,0,
00:00:01.821,-0.00230897963047028,0.00340904295444489,0,
00:00:01.822,-0.00231076776981354,0.00341518968343735,0,
00:00:01.823,-0.00231284648180008,0.00341945886611938,0,
00:00:01.824,-0.00231353938579559,0.00342511385679245,0,
00:00:01.825,-0.00231324881315231,0.0034271702170372,0,
00:00:01.826,-0.00231749564409256,0.00342162698507309,0,
00:00:01.827,-0.00231718271970749,0.00341688841581345,0,
00:00:01.828,-0.00230488926172256,0.00341606140136719,0,
00:00:01.829,-0.00229974836111069,0.003416508436203,0,
00:00:01.83,-0.00230913609266281,0.00341344624757767,0,
00:00:01.831,-0.00231499224901199,0.00341179221868515,0,
00:00:01.832,-0.00231155008077621,0.00341478735208511,0,
00:00:01.833,-0.00230048596858978,0.00342359393835068,0,
00:00:01.834,-0.0022984966635704,0.00342750549316406,0,
00:00:01.835,-0.00230077654123306,0.00342493504285812,0,
00:00:01.836,-0.00230415165424347,0.00342050939798355,0,
00:00:01.837,-0.00230526924133301,0.00341498851776123,0,
00:00:01.838,-0.00230643153190613,0.00341134518384933,0,
00:00:01.839,-0.00230875611305237,0.00341080874204636,0,
00:00:01.84,-0.00230817496776581,0.00341416150331497,0,
00:00:01.841,-0.00230696797370911,0.0034189447760582,0,
00:00:01.842,-0.00230772793292999,0.00342046469449997,0,
00:00:01.843,-0.00230886787176132,0.00341805070638657,0,
00:00:01.844,-0.00230694562196732,0.00341867655515671,0,
00:00:01.845,-0.00230705738067627,0.00341552495956421,0,
00:00:01.846,-0.00231260061264038,0.00340823829174042,0,
00:00:01.847,-0.00231713801622391,0.00340544432401657,0,
00:00:01.848,-0.00231711566448212,0.00340401381254196,0,
00:00:01.849,-0.00231461226940155,0.00340090692043304,0,
00:00:01.85,-0.00231514871120453,0.00340121984481812,0,
00:00:01.851,-0.00231751799583435,0.00340311974287033,0,
00:00:01.852,-0.00231923907995224,0.00341130048036575,0,
00:00:01.853,-0.00232364237308502,0.0034170001745224,0,
00:00:01.854,-0.00232784450054169,0.00341174751520157,0,
00:00:01.855,-0.00232907384634018,0.00340493023395538,0,
00:00:01.856,-0.00233448296785355,0.00340991467237473,0,
00:00:01.857,-0.00233282893896103,0.00341407209634781,0,
00:00:01.858,-0.00232429057359695,0.00341042876243591,0,
00:00:01.859,-0.00231298059225082,0.00341438502073288,0,
00:00:01.86,-0.00229740142822266,0.00342424213886261,0,
00:00:01.861,-0.00228707492351532,0.00342459976673126,0,
00:00:01.862,-0.00229299813508987,0.00343014299869537,0,
00:00:01.863,-0.00230010598897934,0.00343206524848938,0,
00:00:01.864,-0.00230108946561813,0.00343503803014755,0,
00:00:01.865,-0.00231434404850006,0.00344013422727585,0,
00:00:01.866,-0.00232730805873871,0.00344543159008026,0,
00:00:01.867,-0.00233461707830429,0.00344172120094299,0,
00:00:01.868,-0.00233394652605057,0.00343050062656403,0,
00:00:01.869,-0.00232616811990738,0.00342341512441635,0,
00:00:01.87,-0.002316914498806,0.00342278927564621,0,
00:00:01.871,-0.00230006128549576,0.00342294573783875,0,
00:00:01.872,-0.00229579210281372,0.00341921299695969,0,
00:00:01.873,-0.00229007005691528,0.00342124700546265,0,
00:00:01.874,-0.00229074060916901,0.00342585146427155,0,
00:00:01.875,-0.00230171531438828,0.00343023240566254,0,
00:00:01.876,-0.00230719149112701,0.00343029946088791,0,
00:00:01.877,-0.00230935961008072,0.00343059003353119,0,
00:00:01.878,-0.00230488926172256,0.00343181937932968,0,
00:00:01.879,-0.00230097770690918,0.00342938303947449,0,
00:00:01.88,-0.00231143832206726,0.00342824310064316,0,
00:00:01.881,-0.00233785808086395,0.00342560559511185,0,
00:00:01.882,-0.00235269963741302,0.00341860949993134,0,
00:00:01.883,-0.00235024094581604,0.00341212749481201,0,
00:00:01.884,-0.00235294550657272,0.00341290980577469,0,
00:00:01.885,-0.00235654413700104,0.00341217219829559,0,
00:00:01.886,-0.00235379487276077,0.0034114345908165,0,
00:00:01.887,-0.00233899801969528,0.00341246277093887,0,
00:00:01.888,-0.00231747329235077,0.00341071933507919,0,
00:00:01.889,-0.00230976194143295,0.00341762602329254,0,
00:00:01.89,-0.00230082124471664,0.00342408567667007,0,
00:00:01.891,-0.00228510797023773,0.00341838598251343,0,
00:00:01.892,-0.00228137522935867,0.0034160390496254,0,
00:00:01.893,-0.00229252874851227,0.00341764837503433,0,
00:00:01.894,-0.00229156762361526,0.00341641902923584,0,
00:00:01.895,-0.00228673964738846,0.00341208279132843,0,
00:00:01.896,-0.00228729844093323,0.00341257452964783,0,
00:00:01.897,-0.00228821486234665,0.00340873003005981,0,
00:00:01.898,-0.00228886306285858,0.00340204685926437,0,
00:00:01.899,-0.00229585915803909,0.00339920818805695,0,
00:00:01.9,-0.00230363756418228,0.0034087747335434,0,
00:00:01.901,-0.00230712443590164,0.00342303514480591,0,
00:00:01.902,-0.00230797380208969,0.00343184173107147,0,
00:00:01.903,-0.00231067836284637,0.00343213230371475,0,
00:00:01.904,-0.00230450928211212,0.00343438982963562,0,
00:00:01.905,-0.00230515748262405,0.00344245880842209,0,
00:00:01.906,-0.00230705738067627,0.00344979017972946,0,
00:00:01.907,-0.00230656564235687,0.00343772023916245,0,
00:00:01.908,-0.00231157243251801,0.00342549383640289,0,
00:00:01.909,-0.00230406224727631,0.00341865420341492,0,
00:00:01.91,-0.00230037420988083,0.00341051816940308,0,
00:00:01.911,-0.00231689214706421,0.0034058690071106,0,
00:00:01.912,-0.00232885032892227,0.00340698659420013,0,
00:00:01.913,-0.00233294069766998,0.00340978056192398,0,
00:00:01.914,-0.0023348405957222,0.00341693311929703,0,
00:00:01.915,-0.00233830511569977,0.00342649966478348,0,
00:00:01.916,-0.0023396909236908,0.00343099236488342,0,
00:00:01.917,-0.00232965499162674,0.00343331694602966,0,
00:00:01.918,-0.0023111030459404,0.00343552976846695,0,
00:00:01.919,-0.00229744613170624,0.00342969596385956,0,
00:00:01.92,-0.0023028776049614,0.00342408567667007,0,
00:00:01.921,-0.00231043249368668,0.00341858714818954,0,
00:00:01.922,-0.00230531394481659,0.00341536849737167,0,
00:00:01.923,-0.00230752676725388,0.00341418385505676,0,
00:00:01.924,-0.0023190826177597,0.00341237336397171,0,
00:00:01.925,-0.00232033431529999,0.00341221690177917,0,
00:00:01.926,-0.0023111030459404,0.00340915471315384,0,
00:00:01.927,-0.00230171531438828,0.00340452790260315,0,
00:00:01.928,-0.00229183584451675,0.00340615957975388,0,
00:00:01.929,-0.0022963285446167,0.00340750068426132,0,
00:00:01.93,-0.00229954719543457,0.00340387970209122,0,
00:00:01.931,-0.00229939073324203,0.00340137630701065,0,
00:00:01.932,-0.00229858607053757,0.0034036785364151,0,
00:00:01.933,-0.00229585915803909,0.00341293215751648,0,
00:00:01.934,-0.00229476392269135,0.00341816246509552,0,
00:00:01.935,-0.00229744613170624,0.00340975821018219,0,
00:00:01.936,-0.00230220705270767,0.0034109428524971,0,
00:00:01.937,-0.00230734795331955,0.00341442972421646,0,
00:00:01.938,-0.00231235474348068,0.00341568142175674,0,
00:00:01.939,-0.00231501460075378,0.00341865420341492,0,
00:00:01.94,-0.00231342762708664,0.00342372804880142,0,
00:00:01.941,-0.00231114774942398,0.00343137234449387,0,
00:00:01.942,-0.00231358408927917,0.0034402459859848,0,
00:00:01.943,-0.00232033431529999,0.00344426929950714,0,
00:00:01.944,-0.00232429057359695,0.0034421905875206,0,
00:00:01.945,-0.00233575701713562,0.00343756377696991,0,
00:00:01.946,-0.00235357135534287,0.00343485921621323,0,
00:00:01.947,-0.00235524773597717,0.00342804193496704,0,
00:00:01.948,-0.00234697759151459,0.00342303514480591,0,
00:00:01.949,-0.00233524292707443,0.00342008471488953,0,
00:00:01.95,-0.00231684744358063,0.00341210514307022,0,
00:00:01.951,-0.00231845676898956,0.00339831411838531,0,
00:00:01.952,-0.00231995433568954,0.0033893957734108,0,
00:00:01.953,-0.00230759382247925,0.00338664650917053,0,
00:00:01.954,-0.00229576975107193,0.00338727235794067,0,
00:00:01.955,-0.00229445099830627,0.00339017808437347,0,
00:00:01.956,-0.0022984966635704,0.00339730829000473,0,
00:00:01.957,-0.00230216234922409,0.00341380387544632,0,
00:00:01.958,-0.00229775905609131,0.0034310594201088,0,
00:00:01.959,-0.00228734314441681,0.00343313813209534,0,
00:00:01.96,-0.00228597968816757,0.00342491269111633,0,
00:00:01.961,-0.00229228287935257,0.00342424213886261,0,
00:00:01.962,-0.00230410695075989,0.00342287868261337,0,
00:00:01.963,-0.00230837613344193,0.00342316925525665,0,
00:00:01.964,-0.00231282413005829,0.00342468917369843,0,
00:00:01.965,-0.00231675803661346,0.00342647731304169,0,
00:00:01.966,-0.0023181214928627,0.00343555212020874,0,
00:00:01.967,-0.00232075899839401,0.00343825668096542,0,
00:00:01.968,-0.00232406705617905,0.00342699140310287,0,
00:00:01.969,-0.00230734795331955,0.00342343747615814,0,
00:00:01.97,-0.00230269879102707,0.00342321395874023,0,
00:00:01.971,-0.00231863558292389,0.00342379510402679,0,
00:00:01.972,-0.00233014672994614,0.00342155992984772,0,
00:00:01.973,-0.00233618170022964,0.00342028588056564,0,
00:00:01.974,-0.00232619047164917,0.00342388451099396,0,
00:00:01.975,-0.00229934602975845,0.00342303514480591,0,
00:00:01.976,-0.00230144709348679,0.00341597199440002,0,
00:00:01.977,-0.0023171603679657,0.00341389328241348,0,
00:00:01.978,-0.00232936441898346,0.00341413915157318,0,
00:00:01.979,-0.00233151018619537,0.00341503322124481,0,
00:00:01.98,-0.00232802331447601,0.00341659784317017,0,
00:00:01.981,-0.00232639163732529,0.00341896712779999,0,
00:00:01.982,-0.00232066959142685,0.00341968238353729,0,
00:00:01.983,-0.00231083482503891,0.00341648608446121,0,
00:00:01.984,-0.00230395048856735,0.00341138988733292,0,
00:00:01.985,-0.00229644030332565,0.00340781360864639,0,
00:00:01.986,-0.00229208171367645,0.00340557843446732,0,
00:00:01.987,-0.00229592621326447,0.00340278446674347,0,
00:00:01.988,-0.00231320410966873,0.00339943170547485,0,
00:00:01.989,-0.0023282915353775,0.00340180099010468,0,
00:00:01.99,-0.0023353323340416,0.00341279804706573,0,
00:00:01.991,-0.00232625752687454,0.00342486798763275,0,
00:00:01.992,-0.00232082605361938,0.00343085825443268,0,
00:00:01.993,-0.00232125073671341,0.00343280285596848,0,
00:00:01.994,-0.00231235474348068,0.00343228876590729,0,
00:00:01.995,-0.00229623913764954,0.00343387573957443,0,
00:00:01.996,-0.00229686498641968,0.00343816727399826,0,
00:00:01.997,-0.00230167061090469,0.00343246757984161,0,
00:00:01.998,-0.00230182707309723,0.00342607498168945,0,
00:00:01.999,-0.0023050457239151,0.00342558324337006,0,
00:00:02,-0.00230951607227325,0.00342860072851181,0,
00:00:02.001,-0.00231311470270157,0.00342873483896255,0,
00:00:02.002,-0.00231693685054779,0.00342940539121628,0,
00:00:02.003,-0.00231841206550598,0.00342781841754913,0,
00:00:02.004,-0.00231876969337463,0.00342580676078796,0,
00:00:02.005,-0.00232093781232834,0.00342455506324768,0,
00:00:02.006,-0.00232214480638504,0.00342001765966415,0,
00:00:02.007,-0.00231798738241196,0.00341463088989258,0,
00:00:02.008,-0.00230768322944641,0.00341501086950302,0,
00:00:02.009,-0.00229836255311966,0.00341465324163437,0,
00:00:02.01,-0.00229158997535706,0.00341420620679855,0,
00:00:02.011,-0.00229594856500626,0.00341892242431641,0,
00:00:02.012,-0.0023026317358017,0.00342033058404922,0,
00:00:02.013,-0.00230906903743744,0.0034179612994194,0,
00:00:02.014,-0.00230882316827774,0.00341514497995377,0,
00:00:02.015,-0.00229264050722122,0.00341176986694336,0,
00:00:02.016,-0.00228767842054367,0.00340951234102249,0,
00:00:02.017,-0.00229878723621368,0.00340884178876877,0,
00:00:02.018,-0.00230437517166138,0.00341134518384933,0,
00:00:02.019,-0.0023057609796524,0.00341465324163437,0,
00:00:02.02,-0.00230482220649719,0.00341729074716568,0,
00:00:02.021,-0.00230381637811661,0.00342010706663132,0,
00:00:02.022,-0.00230370461940765,0.00342359393835068,0,
00:00:02.023,-0.00230401754379272,0.00342962890863419,0,
00:00:02.024,-0.00230390578508377,0.00342587381601334,0,
00:00:02.025,-0.00230669975280762,0.00342442095279694,0,
00:00:02.026,-0.00232270359992981,0.00342261046171188,0,
00:00:02.027,-0.0023435577750206,0.00342113524675369,0,
00:00:02.028,-0.00234851986169815,0.00341523438692093,0,
00:00:02.029,-0.0023430660367012,0.003408282995224,0,
00:00:02.03,-0.00233432650566101,0.00340110808610916,0,
00:00:02.031,-0.00232227891683578,0.00339335203170776,0,
00:00:02.032,-0.00231407582759857,0.00338729470968246,0,
00:00:02.033,-0.0023125559091568,0.00338876992464066,0,
00:00:02.034,-0.00230953842401505,0.00339560955762863,0,
00:00:02.035,-0.00231371819972992,0.0034058466553688,0,
00:00:02.036,-0.00231662392616272,0.00342413038015366,0,
00:00:02.037,-0.00231412053108215,0.00343745201826096,0,
00:00:02.038,-0.00231083482503891,0.00344109535217285,0,
00:00:02.039,-0.00228627026081085,0.00343883782625198,0,
00:00:02.04,-0.00227699428796768,0.00343430042266846,0,
00:00:02.041,-0.00229080766439438,0.00342439860105515,0,
00:00:02.042,-0.00229538977146149,0.00342084467411041,0,
00:00:02.043,-0.00229460746049881,0.0034213587641716,0,
00:00:02.044,-0.00229579210281372,0.00342149287462235,0,
00:00:02.045,-0.00230292230844498,0.00342553853988647,0,
00:00:02.046,-0.00230752676725388,0.00342665612697601,0,
00:00:02.047,-0.00230585038661957,0.00342661142349243,0,
00:00:02.048,-0.00229878723621368,0.00342468917369843,0,
00:00:02.049,-0.00229433923959732,0.00342567265033722,0,
00:00:02.05,-0.00229639559984207,0.00342359393835068,0,
00:00:02.051,-0.00229872018098831,0.00342278927564621,0,
00:00:02.052,-0.00230216234922409,0.00341860949993134,0,
00:00:02.053,-0.00230314582586288,0.00341641902923584,0,
00:00:02.054,-0.00230547040700912,0.00341518968343735,0,
00:00:02.055,-0.00230692327022552,0.00341371446847916,0,
00:00:02.056,-0.00230551511049271,0.00341060757637024,0,
00:00:02.057,-0.00230739265680313,0.00340727716684341,0,
00:00:02.058,-0.00231137126684189,0.00340526551008224,0,
00:00:02.059,-0.00231324881315231,0.0034111887216568,0,
00:00:02.06,-0.00231224298477173,0.00341950356960297,0,
00:00:02.061,-0.00231237709522247,0.0034242644906044,0,
00:00:02.062,-0.00231664627790451,0.00342591851949692,0,
00:00:02.063,-0.00231539458036423,0.00342482328414917,0,
00:00:02.064,-0.00230471044778824,0.00342495739459991,0,
00:00:02.065,-0.00229686498641968,0.00342046469449997,0,
00:00:02.066,-0.00230303406715393,0.00341878831386566,0,
00:00:02.067,-0.00231651216745377,0.00341981649398804,0,
00:00:02.068,-0.00232540816068649,0.00341928005218506,0,
00:00:02.069,-0.00232987850904465,0.00341563671827316,0,
00:00:02.07,-0.00233148783445358,0.00341230630874634,0,
00:00:02.071,-0.00233329832553864,0.00341004878282547,0,
00:00:02.072,-0.00233278423547745,0.00341206043958664,0,
00:00:02.073,-0.00232274830341339,0.00341203808784485,0,
00:00:02.074,-0.00230231881141663,0.00340705364942551,0,
00:00:02.075,-0.00229009240865707,0.00340414792299271,0,
00:00:02.076,-0.00230441987514496,0.00340756773948669,0,
00:00:02.077,-0.00231602042913437,0.00341442972421646,0,
00:00:02.078,-0.00231483578681946,0.00341825187206268,0,
00:00:02.079,-0.00230330228805542,0.00341968238353729,0,
