ch1_MVC_envelope
3.99078762333404e-08
4.13080116238314e-08
4.2697678119707e-08
4.40734269226596e-08
4.54317939001233e-08
4.6769313013083e-08
4.80825300612504e-08
4.93680166747245e-08
5.06223844722544e-08
5.18422992989765e-08
5.30244954529319e-08
5.41657898100126e-08
5.52630957589179e-08
5.63134368583139e-08
5.73139601266266e-08
5.82619488724741e-08
5.91548349736376e-08
5.99902105165261e-08
6.07658387156213e-08
6.1479664041255e-08
6.21298214929009e-08
6.27146449639897e-08
6.32326746532204e-08
6.3682663485912e-08
6.40635825168061e-08
6.43746252931504e-08
6.46152111634091e-08
6.47849875213611e-08
6.48838309778675e-08
6.49118474555473e-08
6.48693712070363e-08
6.47569627652449e-08
6.4575405842532e-08
6.43257032039085e-08
6.40090715471547e-08
6.36269354306535e-08
6.31809202987787e-08
6.26728446654612e-08
6.21047115281742e-08
6.14786990943146e-08
6.07971509067519e-08
6.00625654538093e-08
5.92775853424576e-08
5.84449861054235e-08
5.7567664706861e-08
5.66486278089891e-08
5.56909798627112e-08
5.46979110863756e-08
5.36726853971742e-08
5.26186283594446e-08
5.15391152137729e-08
5.04375590499053e-08
4.93173991844798e-08
4.81820898016899e-08
4.70350889120735e-08
4.58798476820049e-08
4.47198001832301e-08
4.35583536065339e-08
4.23988789759618e-08
4.12447023907242e-08
4.00990968120349e-08
3.89652744024801e-08
3.78463794170167e-08
3.67454816385674e-08
3.56655703480228e-08
3.46095488173321e-08
3.35802293133109e-08
3.25803285972614e-08
3.16124639012611e-08
3.0679149356996e-08
2.97827928488895e-08
2.8925693261412e-08
2.81100380908534e-08
2.7337901392907e-08
2.66112420375955e-08
2.59319022421257e-08
2.53016063505996e-08
2.47219598276378e-08
2.41944484319807e-08
2.37204375375506e-08
2.3301171573561e-08
2.29377735602621e-08
2.26312447206451e-08
2.23824641508675e-08
2.2192188535539e-08
2.20610519002013e-08
2.19895654015708e-08
2.1978117163575e-08
2.20269721715881e-08
2.21362722383084e-08
2.2306036053758e-08
2.25361593305824e-08
2.28264150552633e-08
2.31764538560457e-08
2.35858044985385e-08
2.40538745194794e-08
2.4579951008106e-08
2.5163201543111e-08
2.58026752912587e-08
2.64973042715757e-08
2.72459047869551e-08
2.80471790231993e-08
2.88997168137563e-08
2.98019975664354e-08
3.07523923460936e-08
3.17491661046502e-08
3.27904800472925e-08
3.3874394123016e-08
3.49988696307512e-08
3.61617719394356e-08
3.7360873328753e-08
3.85938559636597e-08
3.98583150191233e-08
4.11517619725214e-08
4.24716280813806e-08
4.38152680647453e-08
4.51799640073721e-08
4.65629295058421e-08
4.79613140736447e-08
4.93722078188042e-08
5.07926464039872e-08
5.2219616296556e-08
5.36500603154301e-08
5.50808834821948e-08
5.65089591840956e-08
5.79311356559614e-08
5.93442427878874e-08
6.07450992664478e-08
6.21305200580811e-08
6.34973242419955e-08
6.48423431953608e-08
6.61624291259988e-08
6.74544639383456e-08
6.87153684079891e-08
6.99421116290243e-08
7.11317206876673e-08
7.22812905066268e-08
7.33879937989391e-08
7.44490910671792e-08
7.54619405826927e-08
7.64240082780919e-08
7.73328774836727e-08
7.81862584344443e-08
7.89819974701691e-08
7.97180858486657e-08
8.03926680955137e-08
8.10040498227197e-08
8.15507049639665e-08
8.20312823918941e-08
8.24446118997048e-08
8.27897095417602e-08
8.30657823331205e-08
8.32722323052845e-08
8.34086599063729e-08
8.34748667226386e-08
8.34708574892202e-08
8.33968413549551e-08
8.32532323698343e-08
8.30406491728412e-08
8.27599138696284e-08
8.24120501008466e-08
8.19982803108868e-08
8.15200222324623e-08
8.09788846048825e-08
8.03766621438958e-08
7.97153297803889e-08
7.89970361857554e-08
7.82240966033058e-08
7.73989850073437e-08
7.65243256165826e-08
7.56028837986368e-08
7.4637556414759e-08
7.36313616632475e-08
7.25874284838907e-08
7.15089855869416e-08
7.03993501709825e-08
6.92619163948613e-08
6.81001436687389e-08
6.69175448273286e-08
6.57176742437868e-08
6.45041159351016e-08
6.32804717005597e-08
6.20503493267969e-08
6.08173508884689e-08
5.95850611730674e-08
5.83570362602963e-08
5.7136792288197e-08
5.59277944376073e-08
5.47334461628789e-08
5.35570786918212e-08
5.24019408144157e-08
5.12711889794284e-08
5.01678777197401e-08
4.90949504291959e-08
4.80552305149941e-08
4.70514129502029e-08
4.60860562513069e-08
4.51615749055611e-08
4.42802322718901e-08
4.34441339773395e-08
4.26552218295538e-08
4.19152682651563e-08
4.12258713542636e-08
4.05884503819381e-08
4.00042420268359e-08
3.94742971545277e-08
3.89994782379003e-08
3.8580457410638e-08
3.8217715153365e-08
3.79115396071262e-08
3.76620265071703e-08
3.74690797322596e-08
3.73324124696443e-08
3.72515490005176e-08
3.7225827112799e-08
3.72544011468227e-08
3.73362456756039e-08
3.74701598159748e-08
3.76547721613176e-08
3.78885463220764e-08
3.81697870573481e-08
3.84966469793308e-08
3.88671338111338e-08
3.92791181761315e-08
3.97303418927373e-08
4.02184267422588e-08
4.07408836705662e-08
4.12951223786706e-08
4.18784612549949e-08
4.24881376041965e-08
4.31213181330246e-08
4.37751096603394e-08
4.44465700232372e-08
4.51327191526233e-08
4.58305502901315e-08
4.65370413167128e-08
4.72491661644138e-08
4.79639062868334e-08
4.86782621670817e-08
4.93892648413602e-08
5.0093987411239e-08
5.0789556510337e-08
5.14731636834264e-08
5.21420766292408e-08
5.2793650253419e-08
5.34253374754778e-08
5.40346997327865e-08
5.46194171235119e-08
5.5177298128092e-08
5.5706288845656e-08
5.62044816801073e-08
5.66701234112706e-08
5.7101622588269e-08
5.74975561842132e-08
5.78566754550754e-08
5.81779109538389e-08
5.84603766641416e-08
5.87033732337549e-08
5.89063903047921e-08
5.90691079522243e-08
5.91913972532431e-08
5.92733200160286e-08
5.93151276975628e-08
5.93172595375311e-08
5.92803399305725e-08
5.92051750530081e-08
5.90927487527439e-08
5.89442177024328e-08
5.87609058072443e-08
5.85442978518088e-08
5.82960323683192e-08
5.80178937107622e-08
5.77118033292743e-08
5.73798102531609e-08
5.70240808095123e-08
5.66468876242952e-08
5.62505979722393e-08
5.58376615587791e-08
5.54105978296513e-08
5.49719829104927e-08
5.45244362812619e-08
5.40706072906891e-08
5.36131616146709e-08
5.31547677583568e-08
5.26980836943142e-08
5.22457437198722e-08
5.18003456068334e-08
5.13644381065514e-08
5.09405088632645e-08
5.05309727797383e-08
5.01381608729596e-08
4.9764309654126e-08
4.94115510655591e-08
4.90819030061175e-08
4.87772604751351e-08
4.84993873625771e-08
4.82499089107729e-08
4.80303048722332e-08
4.78419033895755e-08
4.76858756263308e-08
4.75632311789197e-08
4.7474814298769e-08
4.74213009503214e-08
4.74031967275687e-08
4.74208356492826e-08
4.74743798497824e-08
4.75638201761678e-08
4.7688977694325e-08
4.78495060959632e-08
4.80448949890378e-08
4.82744740450673e-08
4.85374179690458e-08
4.88327522504037e-08
4.91593596465941e-08
4.95159873449353e-08
4.99012547443779e-08
5.03136617980569e-08
5.07515978605163e-08
5.12133509895804e-08
5.16971176591218e-08
5.22010128419921e-08
5.27230804208923e-08
5.32613038808165e-08
5.38136172325229e-08
5.43779161132651e-08
5.49520690079585e-08
5.55339285298258e-08
5.61213426940627e-08
5.67121661125648e-08
5.73042710346597e-08
5.78955581598857e-08
5.84839671540273e-08
5.90674868063604e-08
5.96441647706982e-08
6.02121168332795e-08
6.0769535648282e-08
6.13146988804157e-08
6.18459766956481e-08
6.23618385445549e-08
6.28608591870475e-08
6.33417239146578e-08
6.38032329402652e-08
6.42443049429457e-08
6.4663979770912e-08
6.50614203148705e-08
6.54359135703529e-08
6.57868709145104e-08
6.61138276312052e-08
6.64164417269574e-08
6.66944920889756e-08
6.69478760444776e-08
6.71766063855451e-08
6.73808079234628e-08
6.7560713630784e-08
6.77166604201527e-08
6.78490845982338e-08
6.79585170224686e-08
6.80455779791386e-08
6.81109717944396e-08
6.81554811867524e-08
6.81799613684661e-08
6.81853339090856e-08
6.81725803766647e-08
6.81427357806936e-08
6.80968818458304e-08
6.8036140151779e-08
6.79616651795293e-08
6.78746373072356e-08
6.77762557993243e-08
6.76677318293931e-08
6.7550281571552e-08
6.74251193881255e-08
6.7293451137213e-08
6.71564676235627e-08
6.70153382200147e-08
6.68712046920999e-08
6.67251752632388e-08
6.6578318961456e-08
6.64316602901855e-08
6.62861742654275e-08
6.61427818590891e-08
6.60023458835333e-08
6.58656673448937e-08
6.57334822829358e-08
6.56064591044604e-08
6.54851964070267e-08
6.53702212809017e-08
6.5261988069258e-08
6.51608775589523e-08
6.50671965671125e-08
6.49811778845404e-08
6.49029805381484e-08
6.48326903410824e-08
6.47703207074119e-08
6.47158137144201e-08
6.46690413980998e-08
6.46298072671649e-08
6.45978480188133e-08
6.45728354363798e-08
6.4554378446335e-08
6.45420253119704e-08
6.45352659444804e-08
6.45335343177441e-08
6.45362109793475e-08
6.45426256574214e-08
6.45520599716655e-08
6.45637502670402e-08
6.45768905979413e-08
6.45906358971574e-08
6.46041053665786e-08
6.46163861253658e-08
6.46265371462511e-08
6.46335935022071e-08
6.46365709345857e-08
6.46344707412418e-08
6.46262849707146e-08
6.46110018975774e-08
6.45876117449266e-08
6.45551126121294e-08
6.45125165585115e-08
6.44588557862874e-08
6.43931888591155e-08
6.43146068870849e-08
6.4222239605416e-08
6.41152612736267e-08
6.39928963268474e-08
6.38544247240145e-08
6.36991869577109e-08
6.35265887112913e-08
6.33361051633961e-08
6.31272849447996e-08
6.28997537497024e-08
6.26532175971895e-08
6.23874657320428e-08
6.21023731495831e-08
6.17979027276334e-08
6.14741069488027e-08
6.11311291955949e-08
6.07692045986755e-08
6.03886604172272e-08
5.99899159326179e-08
5.95734818438875e-08
5.91399591651157e-08
5.86900376384919e-08
5.82244936902242e-08
5.77441879668815e-08
5.72500624956047e-08
5.67431375119661e-08
5.62245079949438e-08
5.56953399421318e-08
5.51568664124783e-08
5.46103833591994e-08
5.40572452712838e-08
5.34988606372582e-08
5.29366872389552e-08
5.23722272760151e-08
5.18070223156483e-08
5.12426480599673e-08
5.06807089274311e-08
5.01228324552791e-08
4.95706635430678e-08
4.90258585693699e-08
4.84900794217361e-08
4.79649874840443e-08
4.74522376266924e-08
4.69534722447536e-08
4.64703153871463e-08
4.60043670158645e-08
4.55571974294181e-08
4.51303418810262e-08
4.47252954212312e-08
4.4343507995647e-08
4.39863798292459e-08
4.36552571274494e-08
4.335142812154e-08
4.30761194822181e-08
4.28304931206196e-08
4.26156433908475e-08
4.24325947025552e-08
4.22822995466509e-08
4.21656369317471e-08
4.20834112238223e-08
4.20363513774122e-08
4.20251105437957e-08
4.20502660397246e-08
4.21123196591771e-08
4.22116983112382e-08
4.23487549703153e-08
4.25237699296145e-08
4.27369523526352e-08
4.29884421181014e-08
4.32783119508369e-08
4.36065698258962e-08
4.39731616274876e-08
4.43779740388885e-08
4.48208376345567e-08
4.53015301404172e-08
4.58197798228339e-08
4.63752689618474e-08
4.69676373605334e-08
4.75964858399978e-08
4.82613796683645e-08
4.896185187119e-08
4.96974063684112e-08
5.04675208782986e-08
5.12716495229969e-08
5.21092250652687e-08
5.29796607041139e-08
5.3882351359671e-08
5.48166743863295e-08
5.57819896664821e-08
5.67776390522224e-08
5.78029451336548e-08
5.88572093171778e-08
5.99397091961399e-08
6.10496951959774e-08
6.21863864864466e-08
6.33489661821996e-08
6.45365758955775e-08
6.5748309746792e-08
6.69832079620997e-08
6.82402501973434e-08
6.95183487195195e-08
7.08163415710656e-08
7.21329858342139e-08
7.34669511063322e-08
7.48168132914637e-08
7.61810488093879e-08
7.75580293228099e-08
7.89460170856064e-08
8.03431610186322e-08
8.17474936223186e-08
8.31569288355729e-08
8.45692609473016e-08
8.59821646598342e-08
8.73931963929202e-08
8.87997969035644e-08
9.01992952814632e-08
9.15889143628724e-08
9.29657775879185e-08
9.43269173080424e-08
9.56692845317072e-08
9.69897600782776e-08
9.82851670927881e-08
9.95522848584266e-08
1.00787863828614e-07
1.01988641786562e-07
1.03151361028484e-07
1.04272786458726e-07
1.05349724480133e-07
1.06379042557236e-07
1.07357689320532e-07
1.08282715068809e-07
1.09151292517982e-07
1.09960737642144e-07
1.10708530452827e-07
1.11392335560869e-07
1.12010022359964e-07
1.12559684664421e-07
1.13039659628352e-07
1.13448545769266e-07
1.13785219915556e-07
1.14048852897204e-07
1.14238923805411e-07
1.14355232657926e-07
1.14397911317391e-07
1.1436743251993e-07
1.14264616887905e-07
1.14090637830344e-07
1.13847024275241e-07
1.13535661221387e-07
1.1315878813427e-07
1.12718995234079e-07
1.12219217732897e-07
1.11662728077399e-07
1.11053126248693e-07
1.10394328165637e-07
1.09690552233464e-07
1.08946304078569e-07
1.08166359516722e-07
1.07355745817492e-07
1.06519721350492e-07
1.05663753724935e-07
1.0479349655905e-07
1.03914765036862e-07
1.03033510424646e-07
1.02155793726695e-07
1.01287758659343e-07
1.00435604114113e-07
9.96055562669472e-08
9.88038404729188e-08
9.80366530664524e-08
9.73101331680503e-08
9.66303345831825e-08
9.60031978706778e-08
9.54345226582154e-08
9.49299402905831e-08
9.44948869099829e-08
9.41345770832833e-08
9.38539781040602e-08
9.36577851031387e-08
9.3550397098299e-08
9.35358941033978e-08
9.36180154034989e-08
9.38001390901769e-08
9.40852629424801e-08
9.44759867331084e-08
9.49744960328623e-08
9.55825475770121e-08
9.63014562461703e-08
9.71320837054605e-08
9.80748287427392e-08
9.91296193501148e-08
1.00295906601217e-07
1.01572660385871e-07
1.02958367069092e-07
1.04451029138547e-07
1.06048166892869e-07
1.07746822205237e-07
1.09543564376223e-07
1.11434498070448e-07
1.13415273316448e-07
1.15481097541196e-07
1.17626749611294e-07
1.19846595860294e-07
1.22134608093149e-07
1.24484383572016e-07
1.26889166999057e-07
1.29341874516676e-07
1.31835119740284e-07
1.34361241824179e-07
1.36912335541233e-07
1.39480283335252e-07
1.42056789281652e-07
1.44633414866892e-07
1.47201616469447e-07
1.49752784395909e-07
1.52278283295866e-07
1.54769493749607e-07
1.57217854794115e-07
1.5961490712569e-07
1.61952336691669e-07
1.64222018359963e-07
1.66416059337278e-07
1.68526841998969e-07
1.705470657945e-07
1.72469787895721e-07
1.74288462255926e-07
1.75996976749271e-07
1.77589688068839e-07
1.79061454080438e-07
1.80407663359765e-07
1.81624261686579e-07
1.82707775330198e-07
1.83655331025848e-07
1.84464672595224e-07
1.85134174196182e-07
1.85662850198157e-07
1.86050361684883e-07
1.86297019597545e-07
1.86403784554449e-07
1.86372263415613e-07
1.86204702698127e-07
1.85903978984653e-07
1.8547358649489e-07
1.84917622001369e-07
1.84240767266262e-07
1.83448269161067e-07
1.82545917611415e-07
1.81540021486958e-07
1.80437382534757e-07
1.79245267441165e-07
1.77971378107064e-07
1.76623820230325e-07
1.75211070296457e-07
1.73741941076174e-07
1.72225545718172e-07
1.70671260512977e-07
1.69088686393195e-07
1.67487609227415e-07
1.65877958959585e-07
1.64269767647744e-07
1.6267312647207e-07
1.61098141811543e-07
1.59554890520047e-07
1.58053374554277e-07
1.56603475116596e-07
1.55214906486922e-07
1.53897169739738e-07
1.52659506575737e-07
1.51510853532831e-07
1.50459796868526e-07
1.49514528420044e-07
1.48682802750471e-07
1.47971895882018e-07
1.47388565905142e-07
1.46939015735988e-07
1.46628858274502e-07
1.46463084192865e-07
1.46446032562109e-07
1.46581364508497e-07
1.46872040082649e-07
1.47320298520393e-07
1.47927642066757e-07
1.48694823517671e-07
1.4962183760897e-07
1.50707916354405e-07
1.51951528407252e-07
1.53350382493081e-07
1.54901434932488e-07
1.56600901242577e-07
1.58444271777548e-07
1.60426331345435e-07
1.6254118272017e-07
1.64782273952092e-07
1.67142429360984e-07
1.69613884072901e-07
1.72188321939052e-07
1.74856916655728e-07
1.77610375889325e-07
1.80438988197381e-07
1.83332672523338e-07
1.86281030029075e-07
1.89273398015853e-07
1.92298905673875e-07
1.95346531395272e-07
1.98405161381782e-07
2.0146364926877e-07
2.04510876465246e-07
2.0753581287574e-07
2.10527577629613e-07
2.13475499404217e-07
2.16369175899386e-07
2.19198532010088e-07
2.21953876253076e-07
2.24625955022911e-07
2.2720600426966e-07
2.29685798197889e-07
2.3205769458984e-07
2.34314676371049e-07
2.36450389076776e-07
2.38459173937956e-07
2.40336096367522e-07
2.42076969677263e-07
2.43678373888437e-07
2.45137669524269e-07
2.4645300630726e-07
2.47623326745615e-07
2.48648364673722e-07
2.49528638881525e-07
2.50265442004572e-07
2.50860824856385e-07
2.51317576388784e-07
2.5163919947751e-07
2.51829882752749e-07
2.51894468724259e-07
2.51838418483372e-07
2.51667773289305e-07
2.51389113358299e-07
2.51009514176928e-07
2.50536500669264e-07
2.49977999566565e-07
2.49342290348095e-07
2.48637955131005e-07
2.47873827883822e-07
2.47058943326731e-07
2.46202485866444e-07
2.45313738895588e-07
2.44402034767416e-07
2.43476705735749e-07
2.42547036126291e-07
2.41622215980362e-07
2.40711296387693e-07
2.39823146701949e-07
2.38966413812271e-07
2.38149483628148e-07
2.3738044492143e-07
2.36667055653504e-07
2.36016711896355e-07
2.35436419437624e-07
2.34932768144574e-07
2.34511909147091e-07
2.34179534882712e-07
2.33940862029344e-07
2.33800617336838e-07
2.33763026354289e-07
2.33831805030156e-07
2.34010154136027e-07
2.34300756438028e-07
2.34705776520029e-07
2.35226863151881e-07
2.35865154088998e-07
2.36621283183791e-07
2.3749538969168e-07
2.38487129674717e-07
2.39595689440326e-07
2.40819800981454e-07
2.4215775938992e-07
2.43607442196468e-07
2.45166330561732e-07
2.46831532214784e-07
2.48599806016381e-07
2.50467588012078e-07
2.52431018832353e-07
2.54485972286813e-07
2.56628084982355e-07
2.58852786769667e-07
2.61155331795997e-07
2.6353082992815e-07
2.65974278317895e-07
2.68480592904612e-07
2.71044639665606e-07
2.73661265417589e-07
2.76325327947503e-07
2.79031725221614e-07
2.81775423399496e-07
2.8455148336763e-07
2.87355085508158e-07
2.9018155243072e-07
2.93026369411778e-07
2.95885202299191e-07
2.98753912654576e-07
3.01628569938214e-07
3.04505460605152e-07
3.07381094074e-07
3.10252205628731e-07
3.13115756391514e-07
3.15968930552833e-07
3.18809130079215e-07
3.21633967156517e-07
3.2444125466458e-07
3.27228994999819e-07
3.2999536755941e-07
3.32738715187331e-07
3.35457529873717e-07
3.38150437994593e-07
3.40816185367654e-07
3.43453622373387e-07
3.46061689349381e-07
3.48639402411788e-07
3.51185839795703e-07
3.53700128745145e-07
3.56181432938418e-07
3.58628940422489e-07
3.61041852057268e-07
3.63419370524405e-07
3.65760690006579e-07
3.68064986666842e-07
3.70331410046504e-07
3.72559075464985e-07
3.74747057462252e-07
3.7689438428882e-07
3.79000033433928e-07
3.81062928202949e-07
3.83081935410463e-07
3.85055864320807e-07
3.86983467009887e-07
3.88863440325156e-07
3.90694429593125e-07
3.92475034181921e-07
3.94203814986745e-07
3.95879303880072e-07
3.97500015152835e-07
3.99064458953012e-07
4.00571156697254e-07
4.02018658399044e-07
4.03405561832002e-07
4.0473053342212e-07
4.05992330726845e-07
4.07189826317386e-07
4.08322032854429e-07
4.09388129149315e-07
4.10387487017894e-07
4.11319698732866e-07
4.12184604847573e-07
4.12982322111928e-07
4.13713271150221e-07
4.14378203531843e-07
4.14978227841993e-07
4.15514834350975e-07
4.15989917884184e-07
4.16405798500736e-07
4.16765239593226e-07
4.1707146303512e-07
4.17328161039138e-07
4.17539504450168e-07
4.17710147270622e-07
4.17845227293277e-07
4.17950362781619e-07
4.18031645178859e-07
4.18095627853382e-07
4.18149310926579e-07
4.18200122292531e-07
4.18255895011582e-07
4.18324841312328e-07
4.18415523457703e-07
4.18536821737276e-07
4.18697899866598e-07
4.18908168113883e-07
4.19177244515156e-07
4.19514914554108e-07
4.19931089662742e-07
4.20435764853228e-07
4.21038975733354e-07
4.21750755095429e-07
4.22581089206883e-07
4.23539873876566e-07
4.24636870330922e-07
4.25881660918739e-07
4.27283604683051e-07
4.28851792895733e-07
4.30595004726881e-07
4.32521663290269e-07
4.3463979235603e-07
4.369569740637e-07
4.3948030801246e-07
4.42216372137619e-07
4.45171185783579e-07
4.48350175352185e-07
4.51758142852905e-07
4.55399237614436e-07
4.59276931337634e-07
4.6339399658436e-07
4.67752488722049e-07
4.72353731296707e-07
4.77198304792968e-07
4.82286038749626e-07
4.87616007218613e-07
4.93186527572041e-07
4.98995162661809e-07
5.05038726305547e-07
5.11313292006883e-07
5.17814204727714e-07
5.24536095436588e-07
5.31472898086047e-07
5.38617868646655e-07
5.45963605859969e-07
5.5350207346026e-07
5.61224623727464e-07
5.69122022333931e-07
5.77184474509538e-07
5.85401652579717e-07
5.93762724956194e-07
6.02256386693842e-07
6.10870891750833e-07
6.19594087077317e-07
6.28413448606594e-07
6.37316119157528e-07
6.46288948213444e-07
6.55318533534507e-07
6.64391264563255e-07
6.7349336756417e-07
6.82610952393104e-07
6.91730060740495e-07
7.00836715655198e-07
7.09916972147189e-07
7.18956968684702e-07
7.27942979419611e-07
7.36861466968572e-07
7.45699135544287e-07
7.54442984185878e-07
7.63080359789258e-07
7.71599009589775e-07
7.79987132696591e-07
7.88233430210436e-07
7.96327153368609e-07
8.04258149072793e-07
8.12016902099275e-07
8.19594573277538e-07
8.26983032929921e-07
8.3417488887886e-07
8.41163508383792e-07
8.47943033518288e-07
8.54508389733498e-07
8.60855287596543e-07
8.66980217856707e-07
8.72880440063816e-07
8.78553965000142e-07
8.83999531250676e-07
8.89216576329746e-07
8.94205202858551e-07
8.98966140309108e-07
9.03500702795467e-07
9.07810743331576e-07
9.11898604925395e-07
9.15767068872486e-07
9.19419300652533e-07
9.22858793892713e-07
9.26089312926924e-07
9.2911483457125e-07
9.31939489871808e-07
9.34567506722727e-07
9.37003154328343e-07
9.39250690459851e-07
9.413143123487e-07
9.43198111897373e-07
9.44906035694693e-07
9.46441850115972e-07
9.47809111592998e-07
9.49011141983734e-07
9.50051008871349e-07
9.50931510563098e-07
9.51655165520684e-07
9.52224205939615e-07
9.52640575225826e-07
9.52905929187472e-07
9.53021640834488e-07
9.52988808739525e-07
9.52808268973684e-07
9.52480610697477e-07
9.52006195538824e-07
9.51385180892445e-07
9.50617547221639e-07
9.49703129354966e-07
9.48641651673115e-07
9.47432766992234e-07
9.46076098873637e-07
9.44571287018367e-07
9.42918035325882e-07
9.41116162097089e-07
9.39165651735205e-07
9.37066707149786e-07
9.34819801925519e-07
9.32425731212551e-07
9.29885660265589e-07
9.27201169641364e-07
9.24374296261473e-07
9.21407569803121e-07
9.18304044125955e-07
9.15067323666059e-07
9.11701584941569e-07
9.0821159349669e-07
9.04602716722053e-07
9.00880933027487e-07
8.97052837838031e-07
8.93125646851182e-07
8.8910719693378e-07
8.8500594496437e-07
8.80830964864451e-07
8.765919430132e-07
8.72299172186826e-07
8.67963544094584e-07
8.6359654050926e-07
8.59210222921633e-07
8.54817220578864e-07
8.50430716682631e-07
8.46064432433057e-07
8.41732608550034e-07
8.37449983935356e-07
8.33231771269105e-07
8.29093629504584e-07
8.25051633349283e-07
8.21122239850002e-07
8.17322252164472e-07
8.13668780553977e-07
8.10179200605859e-07
8.06871108703738e-07
8.0376227482298e-07
8.00870592853537e-07
7.98214028815103e-07
7.95810567461585e-07
7.93678157819093e-07
7.91834658164425e-07
7.90297780863423e-07
7.89085037385381e-07
7.88213683719043e-07
7.87700666362611e-07
7.87562569053103e-07
7.87815560413424e-07
7.88475342682248e-07
7.89557101628878e-07
7.91075457660338e-07
7.93044418035976e-07
7.95477330044158e-07
7.98386834980095e-07
8.01784822783696e-07
8.05682387225374e-07
8.10089781549486e-07
8.15016374499504e-07
8.20470606651654e-07
8.26459946966358e-07
8.32990849434181e-07
8.40068709659909e-07
8.4769782120301e-07
8.55881331478722e-07
8.6462119703305e-07
8.7391813805455e-07
8.83771592089765e-07
8.94179667091176e-07
9.05139094119266e-07
9.16645180176612e-07
9.28691761709002e-07
9.41271159269097e-07
9.54374133761953e-07
9.67989844630951e-07
9.82105810311957e-07
9.96707871285772e-07
1.01178015610335e-06
1.02730505084557e-06
1.04326317259143e-06
1.05963334757431e-06
1.07639259477629e-06
1.09351611572553e-06
1.11097729121881e-06
1.12874768560982e-06
1.14679705922679e-06
1.16509338945604e-06
1.18360290106761e-06
1.20229010644168e-06
1.22111785644539e-06
1.24004740276547e-06
1.25903847247659e-06
1.2780493555037e-06
1.29703700545115e-06
1.31595715407108e-06
1.33476443944855e-06
1.35341254777963e-06
1.37185436840096e-06
1.3900421615124e-06
1.40792773785442e-06
1.42546264946938e-06
1.44259839057878e-06
1.45928660753429e-06
1.4754793167414e-06
1.49112912938503e-06
1.50618948168393e-06
1.52061486928509e-06
1.53436108431239e-06
1.54738545350781e-06
1.55964707582723e-06
1.57110705777456e-06
1.58172874469375e-06
1.59147794619628e-06
1.60032315387541e-06
1.60823574945045e-06
1.61519020151289e-06
1.62116424913139e-06
1.62613907070239e-06
1.63009943656368e-06
1.63303384395349e-06
1.63493463287096e-06
1.6357980813299e-06
1.63562447851667e-06
1.6344181745541e-06
1.63218760593282e-06
1.62894529611621e-06
1.62470783124021e-06
1.61949581110816e-06
1.61333377578995e-06
1.60625010815882e-06
1.59827691279983e-06
1.58944987198937e-06
1.57980807982531e-06
1.56939385594896e-06
1.55825254052538e-06
1.54643227219693e-06
1.53398375063939e-06
1.52095998525272e-06
1.50741603153731e-06
1.49340871688105e-06
1.47899635772074e-06
1.46423847021274e-06
1.44919547660566e-06
1.43392840949876e-06
1.41849861614792e-06
1.40296746495243e-06
1.38739605619533e-06
1.37184493899256e-06
1.35637383622298e-06
1.34104137898792e-06
1.32590485192258e-06
1.31101995047953e-06
1.29644055112932e-06
1.28221849526066e-06
1.26840338740157e-06
1.25504240821371e-06
1.24218014253962e-06
1.22985842262621e-06
1.21811618654192e-06
1.20698935175672e-06
1.19651070384683e-06
1.18670980030994e-06
1.17761288954075e-06
1.16924284510534e-06
1.1616191155172e-06
1.15475768971956e-06
1.14867107841264e-06
1.14336831123777e-06
1.13885494966956e-06
1.13513311530993e-06
1.13220153315996e-06
1.13005558937275e-06
1.12868740294938e-06
1.12808591082184e-06
1.12823696577163e-06
1.12912344665803e-06
1.13072538047995e-06
1.13302007587606e-06
1.13598226776026e-06
1.13958427284341e-06
1.14379615576224e-06
1.14858590541457e-06
1.15391962091571e-06
1.15976170637856e-06
1.16607507350783e-06
1.17282135080447e-06
1.17996109801146e-06
1.18745402430911e-06
1.19525920871215e-06
1.20333532115726e-06
1.21164084288262e-06
1.22013428481935e-06
1.22877440275493e-06
1.23752040796522e-06
1.24633217188596e-06
1.25517042326598e-06
1.26399693616929e-06
1.27277470721594e-06
1.28146812058244e-06
1.2900430994625e-06
1.29846724282524e-06
1.30670994635069e-06
1.31474250643856e-06
1.32253820634335e-06
1.33007238393354e-06
1.33732248127612e-06
1.34426807697489e-06
1.3508909026774e-06
1.35717484533021e-06
1.36310593672873e-06
1.36867233184798e-06
1.37386427742643e-06
1.37867407227475e-06
1.38309602074331e-06
1.38712638070752e-06
1.39076330735686e-06
1.39400679401283e-06
1.39685861111895e-06
1.39932224440875e-06
1.40140283307737e-06
1.40310710858861e-06
1.40444333455705e-06
1.40542124796891e-06
1.40605200188097e-06
1.40634810968608e-06
1.40632339102136e-06
1.40599291935462e-06
1.40537297118028e-06
1.40448097660949e-06
1.40333547099729e-06
1.40195604716393e-06
1.40036330776459e-06
1.39857881740898e-06
1.39662505415393e-06
1.39452535996044e-06
1.39230388968791e-06
1.38998555827019e-06
1.38759598586633e-06
1.38516144090256e-06
1.38270878093869e-06
1.38026539120693e-06
1.37785912054832e-06
1.37551821435338e-06
1.37327124399674e-06
1.3711470321444e-06
1.36917457324769e-06
1.36738294856023e-06
1.36580123511428e-06
1.36445840820954e-06
1.36338323703678e-06
1.36260417307755e-06
1.3621492309694e-06
1.36204586169721e-06
1.36232081829006e-06
1.36300001460173e-06
1.36410837813548e-06
1.36566969817222e-06
1.36770647065982e-06
1.37023974142992e-06
1.37328894933583e-06
1.37687177084895e-06
1.38100396753434e-06
1.38569923770579e-06
1.39096907350486e-06
1.3968226246709e-06
1.40326657031991e-06
1.41030500005917e-06
1.41793930569705e-06
1.42616808467187e-06
1.43498705616214e-06
1.44438899070156e-06
1.45436365402476e-06
1.4648977657784e-06
1.47597497360368e-06
1.48757584293042e-06
1.49967786265406e-06
1.51225546671782e-06
1.52528007150126e-06
1.53872012883422e-06
1.55254119441578e-06
1.56670601140248e-06
1.58117460889988e-06
1.59590441502168e-06
1.61085038406174e-06
1.62596513715907e-06
1.64119911563773e-06
1.65650074600727e-06
1.67181661546003e-06
1.68709165663687e-06
1.70226934048471e-06
1.7172918762089e-06
1.73210041759934e-06
1.74663527528021e-06
1.76083613457525e-06
1.77464227864427e-06
1.78799281641676e-06
1.80082691477903e-06
1.81308403455207e-06
1.82470416997859e-06
1.83562809157605e-06
1.84579759219768e-06
1.85515573597855e-06
1.8636471096259e-06
1.87121807534235e-06
1.87781702457602e-06
1.88339463171814e-06
1.88790410674087e-06
1.8913014455588e-06
1.89354567662621e-06
1.89459910198524e-06
1.89442753070246e-06
1.89300050243914e-06
1.89029149884445e-06
1.88627814054857e-06
1.88094236771251e-06
1.87427060227577e-06
1.86625389015057e-06
1.85688802162818e-06
1.84617362828578e-06
1.83411625484928e-06
1.82072640484315e-06
1.8060195593809e-06
1.79001616897083e-06
1.77274161857823e-06
1.75422616634209e-06
1.73450485636286e-06
1.71361740597026e-06
1.69160806792018e-06
1.66852546809997e-06
1.64442241954737e-06
1.61935571385538e-06
1.59338589124641e-06
1.56657699069713e-06
1.538996281517e-06
1.51071397783279e-06
1.48180293757752e-06
1.45233834777924e-06
1.42239739809234e-06
1.39205894458004e-06
1.3614031658039e-06
1.33051121336653e-06
1.29946485918014e-06
1.26834614183636e-06
1.23723701447474e-06
1.20621899646173e-06
1.17537283103245e-06
1.14477815087578e-06
1.11451315350301e-06
1.08465428811357e-06
1.05527595552703e-06
1.02645022257402e-06
9.98246552145113e-07
9.70731549895795e-07
9.43968728410421e-07
9.1801828944846e-07
8.92936924735839e-07
8.6877763560986e-07
8.45589571665747e-07
8.23417888391703e-07
8.02303623640808e-07
7.82283592702357e-07
7.63390301725522e-07
7.45651879315282e-07
7.29092026233434e-07
7.13729983243068e-07
6.9958051718622e-07
6.8665392536736e-07
6.74956058248645e-07
6.64488360373458e-07
6.5524792933993e-07
6.47227592554672e-07
6.40416001416008e-07
6.34797742506655e-07
6.30353465308284e-07
6.2706002587202e-07
6.24890645784514e-07
6.23815085662507e-07
6.23799832295819e-07
6.24808298445287e-07
6.26801034193923e-07
6.29735948651185e-07
6.3356854072153e-07
6.38252137560403e-07
6.43738139244424e-07
6.49976268080076e-07
6.56914820881857e-07
6.64500922484611e-07
6.72680778733069e-07
6.81399927226674e-07
6.90603484186763e-07
7.00236385927088e-07
7.10243623506247e-07
7.20570469211782e-07
7.31162693630012e-07
7.41966772288902e-07
7.5293008124825e-07
7.64001081444091e-07
7.751294919168e-07
7.86266452203831e-07
7.97364674214015e-07
8.08378583899346e-07
8.19264453033437e-07
8.2998052138572e-07
8.40487109532685e-07
8.50746722468653e-07
8.60724144085728e-07
8.70386522521015e-07
8.79703446347226e-07
8.88647011601644e-07
8.97191879669254e-07
9.0531532603e-07
9.12997279848622e-07
9.20220354346465e-07
9.26969867868998e-07
9.33233855567288e-07
9.39003071642513e-07
9.44270982124765e-07
9.49033748130421e-07
9.53290199465083e-07
9.57041798358629e-07
9.6029259308753e-07
9.63049161273944e-07
9.65320542734147e-07
9.67118161855142e-07
9.68455739588826e-07
9.69349195257411e-07
9.69816538458134e-07
9.69877751434768e-07
9.69554662335297e-07
9.68870809789421e-07
9.67851299226761e-07
9.66522651342465e-07
9.6491264312975e-07
9.63050141969275e-07
9.60964933410261e-07
9.58687543469917e-07
9.56249056452354e-07
9.53680929399724e-07
9.51014804330091e-07
9.48282319394972e-07
9.45514920013349e-07
9.42743670934577e-07
9.39999070092052e-07
9.37310865066312e-07
9.34707872987885e-07
9.3221780475894e-07
9.29867094525863e-07
9.2768073536366e-07
9.25682122129088e-07
9.2389290241665e-07
9.22332836530174e-07
9.21019667364997e-07
9.19969001063031e-07
9.19194199251963e-07
9.18706283647584e-07
9.1851385381691e-07
9.18623018940874e-07
9.19037344413044e-07
9.19757814033985e-07
9.20782808436435e-07
9.22108100250996e-07
9.2372686641884e-07
9.25629717967271e-07
9.27804747459879e-07
9.30237594195892e-07
9.32911527064054e-07
9.35807544770837e-07
9.38904492978275e-07
9.4217919771667e-07
9.45606614294305e-07
9.49159990819405e-07
9.52811045371732e-07
9.56530155786898e-07
9.60286560922789e-07
9.64048572165266e-07
9.6778379381868e-07
9.71459350927617e-07
9.75042122977507e-07
9.78498981798545e-07
9.81797031840232e-07
9.8490385081264e-07
9.87787728548737e-07
9.90417901877602e-07
9.92764783332823e-07
9.94800181622104e-07
9.9649751188256e-07
9.97831993790699e-07
9.98780835604322e-07
9.99323402247063e-07
9.99441365637764e-07
9.99118835586773e-07
9.98342469688367e-07
9.97101560766951e-07
9.95388100712236e-07
9.93196820063789e-07
9.90525203390326e-07
9.87373481121451e-07
9.83744598883621e-07
9.79644165616851e-07
9.75080381916606e-07
9.70063950195726e-07
9.64607968375931e-07
9.58727808887591e-07
9.52440984789309e-07
9.45767004828756e-07
9.38727219270823e-07
9.31344658337352e-07
9.23643865130924e-07
9.15650724917393e-07
9.07392292580527e-07
8.98896619932698e-07
8.90192584394395e-07
8.81309720371833e-07
8.72278054482987e-07
8.63127945615744e-07
8.53889930650054e-07
8.4459457653489e-07
8.35272339271441e-07
8.25953430210736e-07
8.16667689933291e-07
8.07444469857625e-07
7.98312521637981e-07
7.89299894354287e-07
7.80433839447678e-07
7.71740723299621e-07
7.63245947303318e-07
7.54973875246213e-07
7.46947767797322e-07
7.39189723843247e-07
7.31720628345859e-07
7.24560106349023e-07
7.17726482779744e-07
7.11236747751416e-07
7.05106527131105e-07
6.99350058157176e-07
6.93980169914007e-07
6.89008268517228e-07
6.8444432693188e-07
6.80296879405102e-07
6.7657302051245e-07
6.73278408783082e-07
6.70417274802184e-07
6.67992433618249e-07
6.66005301222833e-07
6.64455914814116e-07
6.63342956492015e-07
6.62663779964982e-07
6.6241443979053e-07
6.62589722627168e-07
6.63183179941472e-07
6.64187161605339e-07
6.65592849879927e-07
6.67390293442925e-07
6.69568441333716e-07
6.72115176883166e-07
6.75017351817849e-07
6.78260820797879e-07
6.81830476684796e-07
6.85710286851057e-07
6.89883330856936e-07
6.94331839859271e-07
6.99037238175296e-07
7.03980187470573e-07
7.0914063404502e-07
7.14497859653522e-07
7.20030536235592e-07
7.25716784857054e-07
7.31534239083885e-07
7.37460112904615e-07
7.43471273192473e-07
7.49544316560778e-07
7.5565565032543e-07
7.61781577158902e-07
7.67898382926184e-07
7.73982427171611e-07
7.80010235791699e-07
7.85958595542904e-07
7.91804650124168e-07
7.9752599760434e-07
8.03100788945131e-07
8.08507827318481e-07
8.13726667830177e-07
8.18737717134497e-07
8.2352233227153e-07
8.28062917905428e-07
8.323430210084e-07
8.36347421928386e-07
8.40062220697104e-07
8.43474917385608e-07
8.46574485314387e-07
8.49351435989599e-07
8.5179787476326e-07
8.53907546372735e-07
8.55675869651523e-07
8.57099960775519e-07
8.5817864442277e-07
8.58912452251524e-07
8.59303608235616e-07
8.59356000675944e-07
8.59075141074595e-07
8.58468110412404e-07
8.57543493641528e-07
8.5631130336925e-07
8.54782893771374e-07
8.52970865759899e-07
8.50888964388908e-07
8.48551969463107e-07
8.45975580340942e-07
8.43176295997868e-07
8.40171291510548e-07
8.36978292197172e-07
8.33615446661876e-07
8.30101199929773e-07
8.26454167749516e-07
8.22693013029595e-07
8.1883632529778e-07
8.14902504031176e-07
8.10909646669536e-07
8.06875442070214e-07
8.02817070092428e-07
7.98751107941152e-07
7.94693443880113e-07
7.90659198927306e-07
7.86662657140586e-07
7.82717205059535e-07
7.7883528079e-07
7.75028333113776e-07
7.71306790898955e-07
7.67680042987552e-07
7.64156428640487e-07
7.60743238513715e-07
7.5744672601932e-07
7.54272128799185e-07
7.51223699917997e-07
7.48304748271681e-07
7.4551768760205e-07
7.42864093402011e-07
7.4034476688767e-07
7.37959805110802e-07
7.35708676194097e-07
7.33590298592697e-07
7.31603123220262e-07
7.29745217247418e-07
7.280143484186e-07
7.26408068842006e-07
7.24923797335119e-07
7.23558899500348e-07
7.22310764757988e-07
7.21176879609072e-07
7.20154896458584e-07
7.19242697392296e-07
7.1843845234677e-07
7.17740671130257e-07
7.17148248765624e-07
7.16660503683977e-07
7.1627720841837e-07
7.15998612589019e-07
7.15825458078439e-07
7.15758986357272e-07
7.15800937973042e-07
7.15953544288675e-07
7.16219511667842e-07
7.16601998439953e-07
7.17104585112087e-07
7.17731238402029e-07
7.18486269737176e-07
7.19374288899619e-07
7.20400153493778e-07
7.21568914868366e-07
7.22885761056759e-07
7.24355957238315e-07
7.25984784188617e-07
7.27777475187925e-07
7.29739151897494e-07
7.31874759787331e-07
7.34189003784793e-07
7.36686284882085e-07
7.39370638471429e-07
7.42245675160331e-07
7.45314524754236e-07
7.48579783986824e-07
7.52043468443225e-07
7.55706968971919e-07
7.59571012729773e-07
7.63635628870648e-07
7.67900118799248e-07
7.72363030893776e-07
7.77022139657826e-07
7.81874429365318e-07
7.86916082360796e-07
7.92142472225446e-07
7.97548161998463e-07
8.0312690756332e-07
8.08871666193736e-07
8.14774610138168e-07
8.20827145036692e-07
8.27019932918749e-07
8.33342919503301e-07
8.39785365493179e-07
8.46335881521507e-07
8.52982466372972e-07
8.59712548066e-07
8.66513027361435e-07
8.73370323293743e-07
8.80270420400944e-07
8.87198917404359e-07
8.94141077118775e-07
9.01081877392653e-07
9.08006062951244e-07
9.14898198153341e-07
9.21742720812554e-07
9.28523997301429e-07
9.35226379131182e-07
9.41834261123426e-07
9.48332141213354e-07
9.54704681861152e-07
9.60936772986669e-07
9.67013596269408e-07
9.72920690570743e-07
9.78644018141218e-07
9.84170031181001e-07
9.89485738246022e-07
9.94578769956596e-07
9.9943744346476e-07
1.00405082513821e-06
1.00840879089149e-06
1.01250208353482e-06
1.01632236643853e-06
1.01986227275011e-06
1.02311544936107e-06
1.02607659479695e-06
1.02874149020199e-06
1.03110702262807e-06
1.03317119992583e-06
1.03493315665206e-06
1.03639315051796e-06
1.03755254899784e-06
1.03841380584414e-06
1.0389804274838e-06
1.03925692962973e-06
1.03924878485609e-06
1.03896236222838e-06
1.03840486025402e-06
1.03758423443468e-06
1.03650912063788e-06
1.03518875544608e-06
1.03363289461369e-06
1.03185173074596e-06
1.02985581127346e-06
1.02765595771802e-06
1.02526318714751e-06
1.02268863662433e-06
1.01994349137871e-06
1.01703891738703e-06
1.01398599900667e-06
1.01079568230737e-06
1.00747872471867e-06
1.00404565155486e-06
1.00050671985923e-06
9.96871889835873e-07
9.9315080393447e-07
9.89352773447974e-07
9.85486772294503e-07
9.81561437484989e-07
9.77585075616415e-07
9.73565674571096e-07
9.69510919475811e-07
9.65428211939193e-07
9.6132469167144e-07
9.57207259751406e-07
9.53082602954654e-07
9.48957218644106e-07
9.44837439765044e-07
9.40729459507693e-07
9.36639355222359e-07
9.32573111207628e-07
9.28536640044724e-07
9.24535802213821e-07
9.20576423799607e-07
9.16664312176223e-07
9.12805269641706e-07
9.09005105018636e-07
9.05269643232689e-07
9.01604732845283e-07
8.98016251494462e-07
8.94510109207588e-07
8.91092249563794e-07
8.87768648665526e-07
8.84545311814219e-07
8.81428267697456e-07
8.78423559827508e-07
8.75537234959878e-07
8.72775328267819e-07
8.70143845127001e-07
8.67648739441196e-07
8.65295888499652e-07
8.63091064407372e-07
8.61039902197897e-07
8.59147864863752e-07
8.57420205749601e-07
8.55861929013518e-07
8.54477749070473e-07
8.53272050002599e-07
8.52248845862051e-07
8.51411742684375e-07
8.50763902939874e-07
8.50308013084429e-07
8.50046254796968e-07
8.49980280385709e-07
8.50111192722465e-07
8.50439529949935e-07
8.50965255112276e-07
8.51687750783621e-07
8.52605818712224e-07
8.53717684454054e-07
8.55021006921506e-07
8.56512892701796e-07
8.58189914904876e-07
8.60048136200827e-07
8.62083135623208e-07
8.64290038667093e-07
8.66663550219921e-07
8.69197989932611e-07
8.71887329728264e-07
8.7472523320896e-07
8.777050967495e-07
8.80820092078442e-07
8.84063210149333e-07
8.87427306099751e-07
8.90905145085307e-07
8.94489448749043e-07
8.98172942020137e-07
9.01948399820425e-07
9.05808693115904e-07
9.09746833636534e-07
9.13756016570723e-07
9.17829660652536e-07
9.21961445244422e-07
9.26145344172765e-07
9.30375656140958e-07
9.34647031540148e-07
9.38954495439125e-07
9.43293466492138e-07
9.47659771483633e-07
9.5204965525188e-07
9.56459785796077e-07
9.60887254443916e-07
9.65329571004204e-07
9.69784653847197e-07
9.74250814874533e-07
9.78726739387988e-07
9.83211460933322e-07
9.87704331260256e-07
9.92204985599301e-07
9.96713303517573e-07
1.00122936567297e-06
1.00575340683235e-06
1.01028576557385e-06
1.01482683119378e-06
1.01937698848725e-06
1.02393656121045e-06
1.02850575508845e-06
1.03308460119457e-06
1.03767290044562e-06
1.04227016989189e-06
1.0468755914486e-06
1.05148796369829e-06
1.05610565737535e-06
1.06072657514156e-06
1.06534811629461e-06
1.06996714709418e-06
1.07457997737961e-06
1.07918234405464e-06
1.08376940185007e-06
1.08833572159407e-06
1.09287529606362e-06
1.09738155337867e-06
1.10184737782845e-06
1.10626513797264e-06
1.1106267218231e-06
1.11492357887648e-06
1.1191467687252e-06
1.12328701591556e-06
1.12733477064617e-06
1.13128027481686e-06
1.13511363286768e-06
1.13882488681941e-06
1.14240409495516e-06
1.14584141363053e-06
1.1491271817008e-06
1.15225200697756e-06
1.15520685400089e-06
1.15798313228953e-06
1.16057278414205e-06
1.16296837100894e-06
1.16516315742225e-06
1.16715119145467e-06
1.16892738071664e-06
1.17048756301702e-06
1.17182857097975e-06
1.17294829003408e-06
1.17384570920932e-06
1.17452096407597e-06
1.17497537104126e-06
1.17521145207614e-06
1.17523294885765e-06
1.17504482531196e-06
1.1746532576914e-06
1.1740656116172e-06
1.17329040592326e-06
1.17233726358062e-06
1.17121685037742e-06
1.16994080227336e-06
1.16852164240148e-06
1.16697268862797e-06
1.1653079525263e-06
1.16354203064986e-06
1.16168998908565e-06
1.15976724239826e-06
1.15778942821047e-06
1.15577227881218e-06
1.15373149131069e-06
1.15168259787906e-06
1.14964083759264e-06
1.14762103119546e-06
1.14563745997019e-06
1.14370374975666e-06
1.14183276108328e-06
1.14003648631114e-06
1.13832595460697e-06
1.13671114546118e-06
1.13520091136176e-06
1.1338029101255e-06
1.13252354726974e-06
1.13136792868742e-06
1.13033982377743e-06
1.12944163908059e-06
1.12867440235991e-06
1.12803775692693e-06
1.12752996586254e-06
1.12714792564015e-06
1.1268871885455e-06
1.12674199320393e-06
1.1267053024693e-06
1.12676884790308e-06
1.12692318007309e-06
1.1271577239283e-06
1.12746083856894e-06
1.12781988084709e-06
1.12822127240246e-06
1.12865056992455e-06
1.12909253856004e-06
1.1295312284001e-06
1.12995005389909e-06
1.13033187595271e-06
1.13065908625162e-06
1.13091369345994e-06
1.13107741076169e-06
1.13113174435835e-06
1.13105808254044e-06
1.13083778497356e-06
1.13045227186416e-06
1.12988311273916e-06
1.12911211467264e-06
1.12812140986591e-06
1.12689354250685e-06
1.12541155482847e-06
1.12365907230717e-06
1.12162038799698e-06
1.11928054605602e-06
1.1166254245559e-06
1.1136418176582e-06
1.11031751718198e-06
1.10664139346345e-06
1.10260347525073e-06
1.09819502822612e-06
1.09340863162624e-06
1.08823825231898e-06
1.08267931557178e-06
1.07672877161969e-06
1.07038515704429e-06
1.06364864991887e-06
1.0565211176347e-06
1.04900615628685e-06
1.04110912049936e-06
1.03283714265973e-06
1.02419914072049e-06
1.01520581395562e-06
1.00586962627595e-06
9.96204776910093e-07
9.86227158476856e-07
9.75954302705285e-07
9.65405314246071e-07
9.54600793139745e-07
9.4356274660794e-07
9.32314490977964e-07
9.20880544731914e-07
9.09286513813791e-07
8.97558970373382e-07
8.85725326086849e-07
8.73813701118143e-07
8.61852789696472e-07
8.49871723184342e-07
8.37899931405844e-07
8.25967002918943e-07
8.14102544877347e-07
8.02336043155084e-07
7.90696723484462e-07
7.7921341443683e-07
7.67914413111003e-07
7.56827354376803e-07
7.45979084471409e-07
7.35395539690951e-07
7.25101630873897e-07
7.15121134330393e-07
7.05476589813021e-07
6.96189206034522e-07
6.87278774120234e-07
6.78763589254802e-07
6.70660380663543e-07
6.62984249967812e-07
6.5574861786973e-07
6.48965179057859e-07
6.42643865199932e-07
6.36792815917225e-07
6.31418357700125e-07
6.26524990779499e-07
6.22115383981505e-07
6.18190377571451e-07
6.14748994056349e-07
6.11788456871638e-07
6.09304216821034e-07
6.07289986071574e-07
6.0573777943587e-07
6.04637962609913e-07
6.03979306987245e-07
6.03749050639093e-07
6.0393296502031e-07
6.04515426915253e-07
6.05479495072475e-07
6.06806990903501e-07
6.08478582553716e-07
6.1047387160937e-07
6.12771481711312e-07
6.15349148427233e-07
6.18183809873506e-07
6.21251697719878e-07
6.24528428312089e-07
6.27989093701908e-07
6.31608352387338e-07
6.3536051954536e-07
6.39219656512616e-07
6.43159659277321e-07
6.47154345803264e-07
6.51177542082912e-07
6.55203166875048e-07
6.59205315119181e-07
6.63158340048529e-07
6.67036934053324e-07
6.70816208383681e-07
6.74471771835523e-07
6.77979808626614e-07
6.81317155711709e-07
6.84461379776797e-07
6.87390854088773e-07
6.9008483527674e-07
6.9252354000493e-07
6.94688221382327e-07
6.96561244858338e-07
6.98126163284895e-07
6.99367790766547e-07
7.00272274843089e-07
7.00827166442641e-07
7.01021486921098e-07
7.00845791386282e-07
7.00292227398099e-07
6.99354588043188e-07
6.98028358325668e-07
6.96310753831021e-07
6.94200750728927e-07
6.91699106376795e-07
6.88808370045672e-07
6.85532883579084e-07
6.8187877206203e-07
6.77853924770996e-07
6.73467966781063e-07
6.68732221652167e-07
6.6365966564499e-07
6.58264873952848e-07
6.52563959487197e-07
6.46574504815221e-07
6.40315487895786e-07
6.33807202268341e-07
6.27071172313081e-07
6.20130064139419e-07
6.13007592596443e-07
6.05728424845847e-07
5.98318080902908e-07
5.9080283154541e-07
5.83209594017486e-07
5.75565825997574e-07
5.67899418324157e-07
5.60238586954677e-07
5.5261176457162e-07
5.45047492172128e-07
5.37574310926822e-07
5.30220654602525e-07
5.23014742901394e-07
5.15984476125177e-07
5.09157331584444e-07
5.02560262135197e-07
4.96219597162859e-07
4.90160946274743e-07
4.84409105929026e-07
4.78987969225071e-07
4.73920439084373e-07
4.69228345036545e-07
4.64932363794871e-07
4.61051943800463e-07
4.57605233964558e-07
4.54609016928385e-07
4.52078647237024e-07
4.50027994847267e-07
4.48469394359656e-07
4.47413600306457e-07
4.46869748761565e-07
4.46845325470207e-07
4.47346140624515e-07
4.48376310339146e-07
4.49938244820503e-07
4.52032643192097e-07
4.54658494952535e-07
4.57813088093358e-07
4.6149202395633e-07
4.65689238931209e-07
4.70397033079039e-07
4.75606105720851e-07
4.81305597966434e-07
4.87483142082218e-07
4.94124917520529e-07
5.01215713357027e-07
5.08738996808811e-07
5.16676987435882e-07
5.25010736568035e-07
5.33720211450315e-07
5.42784383565411e-07
5.52181320570524e-07
5.61888281274398e-07
5.71881813074815e-07
5.82137851285218e-07
5.92631819810203e-07
6.03338732682651e-07
6.14233296038636e-07
6.25290010164088e-07
6.36483271279319e-07
6.47787472714589e-07
6.59177105073543e-07
6.7062685491373e-07
6.82111701429789e-07
6.93607010610738e-07
7.05088626336202e-07
7.16532957857443e-07
7.27917063074827e-07
7.39218726983436e-07
7.50416534640822e-07
7.61489938072494e-07
7.72419316722112e-07
7.83186031351696e-07
7.93772471603066e-07
8.04162097651149e-07
8.14339476484801e-07
8.24290313359268e-07
8.34001478903477e-07
8.43461032263963e-07
8.52658240561196e-07
8.61583594860239e-07
8.70228822834169e-07
8.78586898309653e-07
8.86652047896488e-07
8.94419754895654e-07
9.01886760646436e-07
9.0905106340779e-07
9.15911914776087e-07
9.22469813535411e-07
9.28726496727892e-07
9.34684927616415e-07
9.40349280091336e-07
9.45724918970527e-07
9.50818375592554e-07
9.55637318122798e-07
9.60190516068623e-07
9.64487798596542e-07
9.68540006315315e-07
9.72358936202372e-07
9.75957279326884e-07
9.79348551045946e-07
9.82547013518856e-07
9.85567590726743e-07
9.88425776622691e-07
9.91137537431424e-07
9.93719209350942e-07
9.96187392948233e-07
9.98558845433843e-07
1.00085037182013e-06
1.0030787157772e-06
1.00526045084055e-06
1.00741187251333e-06
1.00954889173598e-06
1.0116869301494e-06
1.01384081756125e-06
1.01602469206271e-06
1.01825190334541e-06
1.02053491991077e-06
1.0228852409964e-06
1.02531331411566e-06
1.02782845908792e-06
1.03043879933919e-06
1.03315120110332e-06
1.03597122097658e-06
1.03890306209232e-06
1.04194953901862e-06
1.04511205137401e-06
1.04839056610566e-06
1.05178360834951e-06
1.05528826077448e-06
1.0589001713208e-06
1.06261356929613e-06
1.06642128987475e-06
1.07031480709958e-06
1.07428427546742e-06
1.07831858007479e-06
1.08240539514626e-06
1.08653125060993e-06
1.09068160625964e-06
1.09484093295743e-06
1.09899280026248e-06
1.10311996980802e-06
1.10720449370204e-06
1.11122781724445e-06
1.11517088534393e-06
1.11901425212076e-06
1.122738193218e-06
1.12632282030045e-06
1.12974819715981e-06
1.13299445682371e-06
1.13604191909722e-06
1.13887120802033e-06
1.14146336875377e-06
1.14379998337219e-06
1.14586328495231e-06
1.14763626924885e-06
1.14910280321218e-06
1.15024772964082e-06
1.15105696733926e-06
1.15151760619297e-06
1.15161799653666e-06
1.151347832117e-06
1.15069822591152e-06
1.14966177809083e-06
1.14823263546387e-06
1.1464065417785e-06
1.14418087827572e-06
1.14155469399468e-06
1.13852872556233e-06
1.13510540652372e-06
1.13128886653393e-06
1.1270849208427e-06
1.12250105048095e-06
1.1175463734911e-06
1.11223160749433e-06
1.1065690238822e-06
1.10057239395398e-06
1.09425692739106e-06
1.08763920355168e-06
1.08073709615806e-06
1.07356969200646e-06
1.06615720434726e-06
1.05852088155864e-06
1.05068291167523e-06
1.04266632322963e-06
1.03449488273988e-06
1.02619298908516e-06
1.01778556502393e-06
1.00929794625522e-06
1.00075576866651e-06
9.92184854671277e-07
9.83611099734933e-07
9.75060360275513e-07
9.66558344107896e-07
9.58130504510722e-07
9.49801938866642e-07
9.41597292686953e-07
9.33540669714246e-07
9.2565554871991e-07
9.17964707560807e-07
9.10490155002211e-07
9.0325307074352e-07
8.96273754007328e-07
8.89571580973064e-07
8.83164971245191e-07
8.77071363439922e-07
8.71307199860803e-07
8.65887920119504e-07
8.60827963449012e-07
8.56140779363056e-07
8.51838846248907e-07
8.47933697436089e-07
8.44435954246537e-07
8.41355365492233e-07
8.38700852837648e-07
8.36480561377315e-07
8.34701914690527e-07
8.33371673535301e-07
8.32495997245927e-07
8.32080506812915e-07
8.32130348553088e-07
8.32650257211523e-07
8.33644617264269e-07
8.35117521114291e-07
8.37072822818019e-07
8.39514185984302e-07
8.4244512458094e-07
8.45869035559075e-07
8.49789222409723e-07
8.5420890893136e-07
8.59131242585185e-07
8.64559286899268e-07
8.70496002563075e-07
8.76944217192981e-07
8.83906584180903e-07
8.91385531416946e-07
8.99383200913237e-07
9.07901380472639e-07
9.16941428605568e-07
9.26504193927388e-07
9.36589930263203e-07
9.47198208653635e-07
9.58327827420247e-07
9.69976721429741e-07
9.82141871686776e-07
9.94819216364943e-07
1.00800356433101e-06
1.02168851212298e-06
1.03586636523155e-06
1.05052806444011e-06
1.0656631179097e-06
1.08125953962837e-06
1.09730379475313e-06
1.11378075224199e-06
1.13067364501069e-06
1.14796403768468e-06
1.16563180189662e-06
1.18365509902923e-06
1.20201037031694e-06
1.22067233428198e-06
1.23961399157497e-06
1.25880663739532e-06
1.27821988174488e-06
1.29782167778975e-06
1.31757835856804e-06
1.33745468222044e-06
1.3574138858888e-06
1.3774177484558e-06
1.39742666237232e-06
1.41739971490457e-06
1.43729477921007e-06
1.45706861570696e-06
1.47667698421137e-06
1.49607476725944e-06
1.51521610490538e-06
1.53405454111902e-06
1.5525431817166e-06
1.5706348635774e-06
1.58828233476912e-06
1.60543844514687e-06
1.62205634695608e-06
1.63808970487396e-06
1.65349291473153e-06
1.66822132991896e-06
1.68223149426285e-06
1.69548138000634e-06
1.70793062940626e-06
1.71954079837031e-06
1.7302756004656e-06
1.74010114949301e-06
1.74898619859614e-06
1.75690237357885e-06
1.76382439780975e-06
1.76973030587272e-06
1.77460164301581e-06
1.77842364746044e-06
1.78118541275521e-06
1.78288002761838e-06
1.78350469113046e-06
1.7830608016468e-06
1.78155401826147e-06
1.7789942940129e-06
1.77539588036803e-06
1.77077730292295e-06
1.76516130864279e-06
1.75857478522488e-06
1.75104865332132e-06
1.74261773250167e-06
1.73332058204103e-06
1.72319931786788e-06
1.71229940725583e-06
1.70066944305477e-06
1.68836089941447e-06
1.6754278710508e-06
1.66192679814012e-06
1.64791617890091e-06
1.63345627184428e-06
1.61860878957297e-06
1.60343658591344e-06
1.58800333811298e-06
1.57237322583582e-06
1.55661060871896e-06
1.54077970425093e-06
1.52494426772787e-06
1.50916727608306e-06
1.49351061749231e-06
1.47803478874565e-06
1.46279860235225e-06
1.44785890519194e-06
1.43327031030396e-06
1.41908494320484e-06
1.40535220402662e-06
1.39211854676904e-06
1.37942727700396e-06
1.36731836937316e-06
1.35582830613531e-06
1.34498993785188e-06
1.33483236709463e-06
1.32538085585032e-06
1.31665675710919e-06
1.30867747094043e-06
1.30145642515622e-06
1.29500308044013e-06
1.28932295957283e-06
1.28441770013701e-06
1.28028512983352e-06
1.27691936331001e-06
1.27431091921018e-06
1.27244685599674e-06
1.27131092497936e-06
1.27088373887724e-06
1.27114295414459e-06
1.27206346518629e-06
1.27361760852302e-06
1.27577537497186e-06
1.27850462800489e-06
1.28177132661863e-06
1.28553975124695e-06
1.28977273142129e-06
1.29443187399357e-06
1.29947779078967e-06
1.30487032456153e-06
1.31056877204656e-06
1.31653210284187e-06
1.32271917272727e-06
1.32908893011112e-06
1.33560061445528e-06
1.34221394578908e-06
1.34888930463451e-06
1.35558790177543e-06
1.36227193735268e-06
1.36890474882903e-06
1.37545094750026e-06
1.38187654344482e-06
1.38814905906602e-06
1.39423763160042e-06
1.40011310506001e-06
1.40574811202337e-06
1.41111714553725e-06
1.41619662122177e-06
1.42096492958037e-06
1.42540247854752e-06
1.4294917264185e-06
1.43321720538597e-06
1.43656553589934e-06
1.43952543201727e-06
1.4420876979386e-06
1.44424521599421e-06
1.44599292649554e-06
1.4473277999117e-06
1.44824880190839e-06
1.4487568518621e-06
1.44885477553895e-06
1.4485472526423e-06
1.44784075987309e-06
1.44674351004942e-06
1.44526538774216e-06
1.44341788183027e-06
1.44121401535679e-06
1.4386682730292e-06
1.43579652661641e-06
1.4326159583609e-06
1.42914498241196e-06
1.42540316426507e-06
1.42141113828792e-06
1.41719052357312e-06
1.41276383848447e-06
1.40815441428988e-06
1.40338630818956e-06
1.39848421588122e-06
1.39347338358799e-06
1.38837951925974e-06
1.38322870250459e-06
1.37804729276462e-06
1.37286183531346e-06
1.36769896479126e-06
1.36258530620162e-06
1.35754737358593e-06
1.35261146692115e-06
1.34780356804071e-06
1.34314923646445e-06
1.33867350594593e-06
1.33440078239478e-06
1.33035474371647e-06
1.32655824209959e-06
1.32303320936744e-06
1.31980056612848e-06
1.3168801355309e-06
1.31429056242546e-06
1.31204923868423e-06
1.31017223533749e-06
1.30867424209276e-06
1.30756851468903e-06
1.30686683039334e-06
1.30657945174878e-06
1.30671509844246e-06
1.30728092692284e-06
1.30828251721168e-06
1.3097238662727e-06
1.31160738731407e-06
1.31393391448372e-06
1.31670271253641e-06
1.31991149121462e-06
1.32355642428354e-06
1.32763217334468e-06
1.33213191665284e-06
1.33704738314923e-06
1.34236889181813e-06
1.34808539631286e-06
1.35418453461668e-06
1.36065268334844e-06
1.36747501623393e-06
1.3746355662611e-06
1.38211729110487e-06
1.38990214150926e-06
1.3979711324213e-06
1.40630441676508e-06
1.41488136181949e-06
1.42368062822408e-06
1.43268025167535e-06
1.44185772736015e-06
1.45119009709778e-06
1.4606540390794e-06
1.47022596006015e-06
1.47988208987275e-06
1.48959857813004e-06
1.4993515929148e-06
1.50911742113496e-06
1.51887257013723e-06
1.52859387019118e-06
1.5382585775542e-06
1.54784447789827e-06
1.55732998985097e-06
1.5666942682765e-06
1.57591730673718e-06
1.58498003836324e-06
1.59386443414013e-06
1.60255359741761e-06
1.6110318532965e-06
1.61928483150024e-06
1.62729954140025e-06
1.63506443802103e-06
1.64256947809581e-06
1.6498061655336e-06
1.65676758591062e-06
1.66344842977033e-06
1.66984500463565e-06
1.6759552357517e-06
1.6817786557063e-06
1.6873163832226e-06
1.69257109158775e-06
1.69754696739962e-06
1.70224966058855e-06
1.70668622692965e-06
1.71086506438128e-06
1.71479584453653e-06
1.71848944034744e-06
1.7219578511697e-06
1.72521412608518e-06
1.72827228634895e-06
1.73114724766856e-06
1.73385474289835e-06
1.73641124564207e-06
1.73883389516466e-06
1.74114042289591e-06
1.74334908072701e-06
1.74547857135173e-06
1.74754798108075e-06
1.74957671573637e-06
1.75158444029252e-06
1.7535910228477e-06
1.75561648335046e-06
1.75768094727137e-06
1.75980460415114e-06
1.7620076706876e-06
1.76431035781574e-06
1.76673284114028e-06
1.76929523410863e-06
1.77201756339238e-06
1.77491974597426e-06
1.77802156737947e-06
1.7813426604181e-06
1.78490248381093e-06
1.78872030016601e-06
1.79281515288651e-06
1.79720584164644e-06
1.80191089605338e-06
1.80694854705356e-06
1.81233669556434e-06
1.81809287778246e-06
1.82423422663393e-06
1.83077742888431e-06
1.83773867749044e-06
1.84513361885567e-06
1.85297729476646e-06
1.86128407892082e-06
1.8700676080667e-06
1.87934070783417e-06
1.88911531339742e-06
1.89940238517862e-06
1.91021181991933e-06
1.92155235760694e-06
1.93343148499172e-06
1.94585533676766e-06
1.95882859583753e-06
1.97235439431824e-06
1.98643421698341e-06
2.00106780869269e-06
2.0162530871098e-06
2.03198606179101e-06
2.04826076062705e-06
2.06506916463467e-06
2.08240115212741e-06
2.10024445327839e-06
2.11858461601989e-06
2.13740498410885e-06
2.15668668801218e-06
2.17640864904601e-06
2.19654759699389e-06
2.21707810124928e-06
2.23797261533452e-06
2.25920153440817e-06
2.28073326513322e-06
2.30253430714458e-06
2.32456934538951e-06
2.34680135277335e-06
2.36919170269361e-06
2.39170029107495e-06
2.41428566742187e-06
2.43690517429276e-06
2.4595150946343e-06
2.48207080670971e-06
2.5045269468353e-06
2.52683758057513e-06
2.5489563832569e-06
2.57083683065949e-06
2.59243240054257e-06
2.61369678537037e-06
2.63458411616605e-06
2.65504919700591e-06
2.67504774930046e-06
2.69453666473387e-06
2.71347426551585e-06
2.7318205703944e-06
2.74953756464621e-06
2.76658947197986e-06
2.78294302595016e-06
2.79856773811978e-06
2.81343615988642e-06
2.82752413471442e-06
2.84081103755577e-06
2.85327999852771e-06
2.86491810831099e-06
2.87571660305216e-06
2.88567102666697e-06
2.89478136839238e-06
2.9030521734023e-06
2.91049262444447e-06
2.91711659276803e-06
2.92294265700694e-06
2.9279940891138e-06
2.93229880686786e-06
2.93588929286436e-06
2.93880248029822e-06
2.94107960643651e-06
2.94276603542928e-06
2.94391105279793e-06
2.94456763432577e-06
2.94479219211775e-06
2.94464430042625e-06
2.94418640363894e-06
2.94348350871107e-06
2.94260286428756e-06
2.94161362870443e-06
2.94058652893798e-06
2.93959351242689e-06
2.93870739360096e-06
2.93800149694047e-06
2.93754929841836e-06
2.93742406718552e-06
2.93769850935355e-06
2.93844441574554e-06
2.9397323155242e-06
2.94163113763764e-06
2.9442078820296e-06
2.94752730251609e-06
2.95165160310277e-06
2.95664014931165e-06
2.96254919581941e-06
2.9694316313596e-06
2.97733674139311e-06
2.98630998857748e-06
2.99639281070298e-06
3.00762243563089e-06
3.02003171289475e-06
3.03364896190625e-06
3.04849783697484e-06
3.06459720947905e-06
3.08196106748674e-06
3.10059843294222e-06
3.12051329630906e-06
3.14170456840783e-06
3.16416604921728e-06
3.18788641359381e-06
3.21284921408172e-06
3.23903290114238e-06
3.26641086124285e-06
3.29495147335382e-06
3.32461818447215e-06
3.35536960471144e-06
3.3871596222474e-06
3.41993753799303e-06
3.45364821938714e-06
3.48823227217901e-06
3.52362622865233e-06
3.5597627504216e-06
3.59657084377164e-06
3.63397608543133e-06
3.6719008566338e-06
3.71026458340577e-06
3.74898398139425e-06
3.78797330418266e-06
3.82714459477618e-06
3.86640794052703e-06
3.90567173216201e-06
3.94484292781877e-06
3.98382732309934e-06
4.02252982805466e-06
4.06085475171831e-06
4.09870609439938e-06
4.1359878475302e-06
4.17260430052473e-06
4.20846035389739e-06
4.24346183784228e-06
4.27751583551194e-06
4.31053101022065e-06
4.34241793569271e-06
4.37308942845764e-06
4.40246088176075e-06
4.43045060082115e-06
4.45698013958286e-06
4.4819746390122e-06
4.50536316655926e-06
4.52707905588269e-06
4.54706024552486e-06
4.56524961491773e-06
4.5815953157998e-06
4.59605109677578e-06
4.60857661835372e-06
4.61913775534995e-06
4.6277068830659e-06
4.63426314314684e-06
4.63879268454801e-06
4.64128887455496e-06
4.64175247436131e-06
4.64019177337187e-06
4.63662267625965e-06
4.63106873703388e-06
4.62356113528229e-06
4.61413859154095e-06
4.60284722115845e-06
4.58974032836014e-06
4.57487814389007e-06
4.55832751058766e-06
4.54016152191574e-06
4.52045911906835e-06
4.49930465283086e-06
4.47678741668549e-06
4.45300115762693e-06
4.42804357076128e-06
4.4020157831327e-06
4.3750218315484e-06
4.34716813860039e-06
4.31856299065143e-06
4.28931602118542e-06
4.25953770249472e-06
4.22933884815704e-06
4.1988301282219e-06
4.16812159855552e-06
4.13732224540983e-06
4.10653954599301e-06
4.07587904561397e-06
4.04544395183032e-06
4.01533474603058e-06
3.98564881320431e-06
3.95648009133214e-06
3.92791874257957e-06
3.90005084890811e-06
3.87295813465074e-06
3.8467177181599e-06
3.82140189405715e-06
3.79707794705261e-06
3.77380799780181e-06
3.75164888083717e-06
3.73065205430002e-06
3.71086354109819e-06
3.69232390124377e-06
3.67506823532485e-06
3.65912621907599e-06
3.64452216871995e-06
3.63127513626098e-06
3.61939903341214e-06
3.60890278247792e-06
3.59979049235286e-06
3.59206165781994e-06
3.58571138042905e-06
3.5807306092509e-06
3.57710639967558e-06
3.57482218824236e-06
3.57385808133868e-06
3.57419115546036e-06
3.57579576649962e-06
3.57864386522706e-06
3.58270531586601e-06
3.58794821452432e-06
3.59433920424752e-06
3.60184378347152e-06
3.61042660456926e-06
3.62005175901162e-06
3.63068304553076e-06
3.64228421779135e-06
3.65481920862428e-06
3.66825232884064e-06
3.68254843973981e-06
3.69767309938594e-06
3.71359268354578e-06
3.73027448298479e-06
3.74768677958915e-06
3.76579890433498e-06
3.78458128030042e-06
3.80400545370169e-06
3.82404411551351e-06
3.84467111587472e-06
3.86586147334598e-06
3.88759138113154e-06
3.90983821244002e-06
3.93258052711741e-06
3.95579808150912e-06
3.97947184323233e-06
4.00358401221401e-06
4.02811804898916e-06
4.05305871085573e-06
4.07839209608039e-06
4.10410569603212e-06
4.13018845499065e-06
4.156630837445e-06
4.18342490279215e-06
4.21056438721273e-06
4.23804479201256e-06
4.26586347695497e-06
4.29401975626037e-06
4.32251499426018e-06
4.35135269741521e-06
4.38053859963824e-06
4.41008073834235e-06
4.43998951892815e-06
4.47027776528295e-06
4.50096075343639e-06
4.53205622510582e-06
4.56358437764321e-06
4.59556782687884e-06
4.62803153955202e-06
4.66100273245797e-06
4.69451073609961e-06
4.72858682147499e-06
4.76326398961888e-06
4.7985767245369e-06
4.83456071102386e-06
4.87125251937621e-06
4.9086892591384e-06
4.94690820388348e-06
4.98594638889164e-06
5.02584018373444e-06
5.06662484230808e-06
5.10833403367148e-06
5.15099935785001e-06
5.19464985127305e-06
5.2393114866279e-06
5.28500667179618e-06
5.33175375246254e-06
5.37956652306146e-06
5.42845375080474e-06
5.47841871736012e-06
5.52945878223918e-06
5.58156497120472e-06
5.63472159219719e-06
5.68890588059389e-06
5.74408767526986e-06
5.80022912706926e-06
5.85728444180244e-06
5.91519966039692e-06
5.97391247905112e-06
6.03335211218753e-06
6.09343920094696e-06
6.15408577014332e-06
6.21519523702151e-06
6.276662475637e-06
6.33837394092935e-06
6.4002078564044e-06
6.46203446882513e-06
6.52371637270807e-06
6.58510890695716e-06
6.64606062557256e-06
6.70641384379911e-06
6.76600526022313e-06
6.82466665433845e-06
6.88222565817616e-06
6.93850659974161e-06
6.99333141508809e-06
7.04652062476153e-06
7.09789436908641e-06
7.14727349541673e-06
7.19448068915212e-06
7.23934163913587e-06
7.28168622709742e-06
7.32134973005758e-06
7.35817402398333e-06
7.39200877644548e-06
7.42271261570819e-06
7.45015426371207e-06
7.47421362089075e-06
7.49478279164414e-06
7.51176704030821e-06
7.52508566822085e-06
7.53467280287145e-06
7.54047809058187e-06
7.54246728539827e-06
7.54062272911263e-06
7.53494371997893e-06
7.52544676971932e-06
7.51216574924014e-06
7.49515192338741e-06
7.47447387491124e-06
7.45021731825246e-06
7.42248480487285e-06
7.39139532317542e-06
7.3570837970818e-06
7.31970048785401e-06
7.27941030402691e-06
7.23639202485195e-06
7.19083744368756e-06
7.14295043898403e-06
7.09294598129013e-06
7.04104908471894e-06
6.98749371071421e-06
6.93252163121676e-06
6.87638125790931e-06
6.81932644433618e-06
6.76161526817159e-06
6.70350880131999e-06
6.64526987558361e-06
6.58716185137468e-06
6.52944739660332e-06
6.47238728251681e-06
6.41623920275133e-06
6.36125662103069e-06
6.3076876519224e-06
6.25577397822219e-06
6.20574980829249e-06
6.15784087713137e-06
6.11226349575335e-06
6.06922365408673e-06
6.02891618272891e-06
5.99152397863405e-06
5.95721729940144e-06
5.926153130442e-06
5.89847462885926e-06
5.87431064726755e-06
5.85377533998727e-06
5.83696785319048e-06
5.82397209964662e-06
5.81485661773008e-06
5.80967451333803e-06
5.80846348239089e-06
5.81124591068228e-06
5.81802904703009e-06
5.82880524494681e-06
5.8435522673341e-06
5.86223364798959e-06
5.88479910314529e-06
5.91118498610663e-06
5.94131477847044e-06
5.97509961220831e-06
6.01243881773792e-06
6.05322049362853e-06
6.09732209370032e-06
6.14461102717883e-06
6.19494526759417e-06
6.24817396650949e-06
6.30413806896454e-06
6.36267092864917e-06
6.42359892212234e-06
6.48674206256577e-06
6.55191461423465e-06
6.61892570875959e-06
6.68757996394853e-06
6.75767810513938e-06
6.82901758877563e-06
6.90139322778042e-06
6.97459781832445e-06
7.04842276749132e-06
7.12265872102413e-06
7.19709618984416e-06
7.2715261734607e-06
7.3457407777372e-06
7.4195338237287e-06
7.49270144361743e-06
7.56504265939532e-06
7.63635993989123e-06
7.70645973178426e-06
7.77515296026601e-06
7.84225549518638e-06
7.90758857897471e-06
7.97097921321739e-06
8.03226050126896e-06
8.0912719447712e-06
8.14785969290211e-06
8.20187674493707e-06
8.25318310906824e-06
8.30164592263584e-06
8.34713954025566e-06
8.38954559667686e-06
8.42875305102625e-06
8.46465821883282e-06
8.49716479796552e-06
8.52618389422971e-06
8.55163405182856e-06
8.57344129336993e-06
8.59153917372777e-06
8.60586885175634e-06
8.61637918334124e-06
8.62302683838155e-06
8.62577644310045e-06
8.62460074776061e-06
8.61948081850565e-06
8.61040625059586e-06
8.59737539867958e-06
8.58039561800696e-06
8.55948350885566e-06
8.53466515512039e-06
8.50597634714601e-06
8.47346277845956e-06
8.43718020596547e-06
8.39719456322251e-06
8.35358201651155e-06
8.30642895373928e-06
8.25583189727053e-06
8.20189733385681e-06
8.14474145779568e-06
8.08448982679534e-06
8.02127693302615e-06
7.95524569384356e-06
7.88654686741342e-06
7.81533839835073e-06
7.74178469823833e-06
7.66605586608256e-06
7.58832685453398e-06
7.50877658887482e-06
7.42758704702148e-06
7.3449423097524e-06
7.26102759082701e-06
7.17602825668335e-06
7.09012884528164e-06
7.00351209359058e-06
6.91635798312158e-06
6.82884281268182e-06
6.74113830717679e-06
6.65341077095947e-06
6.56582029388857e-06
6.47852001779709e-06
6.39165547039423e-06
6.30536397276392e-06
6.21977412566693e-06
6.13500537882488e-06
6.05116768621214e-06
5.96836124908568e-06
5.88667634710259e-06
5.80619325651529e-06
5.72698225317222e-06
5.64910369692658e-06
5.57260819306751e-06
5.49753682550208e-06
5.4239214556087e-06
5.35178508002969e-06
5.28114224037537e-06
5.21199947799296e-06
5.14435582739449e-06
5.07820334217669e-06
5.01352764701264e-06
4.95030850869667e-06
4.88852041872534e-06
4.82813317992497e-06
4.76911249032806e-06
4.71142051861716e-06
4.65501646656976e-06
4.59985711471633e-06
4.54589734774144e-06
4.49309065611996e-06
4.44138961042903e-06
4.39074630512372e-06
4.34111276947145e-06
4.29244134459874e-06
4.24468502684257e-06
4.19779777852896e-06
4.15173480779022e-06
4.10645281909917e-06
4.06191023601452e-06
4.01806739742878e-06
3.97488672851425e-06
3.93233288753262e-06
3.89037288962744e-06
3.84897620863613e-06
3.80811485788359e-06
3.76776345093407e-06
3.7278992434748e-06
3.68850215788996e-06
3.64955479251611e-06
3.61104241786721e-06
3.57295296217892e-06
3.53527698845239e-06
3.49800766484192e-06
3.46114072980634e-06
3.42467445299741e-06
3.38860959245771e-06
3.35294934840644e-06
3.31769931371059e-06
3.28286742102133e-06
3.24846388646866e-06
3.21450114977236e-06
3.18099381065794e-06
3.14795856150004e-06
3.11541411604871e-06
3.08338113386653e-06
3.05188213972953e-06
3.02094143678801e-06
2.99058501185147e-06
2.96084043089633e-06
2.93173672292324e-06
2.90330425066748e-06
2.87557456733326e-06
2.84858025930351e-06
2.82235477544076e-06
2.79693224400915e-06
2.77234727848362e-06
2.74863477374356e-06
2.72582969444258e-06
2.70396685759853e-06
2.68308071154989e-06
2.66320511337893e-06
2.64437310679044e-06
2.62661670232284e-06
2.60996666166881e-06
2.59445228776418e-06
2.58010122213939e-06
2.56693925083294e-06
2.55499011997889e-06
2.54427536201044e-06
2.53481413325569e-06
2.52662306353307e-06
2.51971611819936e-06
2.51410447300472e-06
2.50979640211314e-06
2.50679717976627e-06
2.50510899623057e-06
2.50473088874823e-06
2.50565868815697e-06
2.50788498172308e-06
2.51139909263409e-06
2.51618707649653e-06
2.52223173500594e-06
2.52951264672862e-06
2.53800621478677e-06
2.54768573123865e-06
2.55852145801022e-06
2.57048072424618e-06
2.58352803986543e-06
2.59762522495507e-06
2.61273155443821e-06
2.62880391718808e-06
2.645796988426e-06
2.66366341388146e-06
2.68235400392094e-06
2.70181793573517e-06
2.72200296164733e-06
2.74285562151109e-06
2.76432145694197e-06
2.78634522489819e-06
2.80887110812741e-06
2.83184292033933e-06
2.85520430450153e-06
2.87889892307649e-06
2.90287063913977e-06
2.92706368725497e-06
2.95142283298046e-06
2.97589352007337e-06
3.00042200474726e-06
3.02495547653586e-06
3.04944216529539e-06
3.07383143370322e-06
3.09807385448571e-06
3.12212127174364e-06
3.145926846208e-06
3.16944508492771e-06
3.19263185651719e-06
3.21544439347328e-06
3.23784128320631e-06
3.25978244950402e-06
3.28122912634302e-06
3.30214382630606e-06
3.32249030623202e-06
3.34223353293516e-06
3.36133965174187e-06
3.37977596019262e-06
3.39751088864531e-06
3.4145139888241e-06
3.43075593069363e-06
3.44620850752913e-06
3.46084464882713e-06
3.47463844074144e-06
3.48756515380728e-06
3.49960127758636e-06
3.51072456149891e-06
3.52091406068392e-06
3.53015018542089e-06
3.53841475250594e-06
3.54569103696232e-06
3.55196382254524e-06
3.55721944966692e-06
3.56144585960278e-06
3.56463263407068e-06
3.5667710294057e-06
3.56785400456219e-06
3.56787624218457e-06
3.56683416216658e-06
3.5647259275043e-06
3.56155144276655e-06
3.55731234612036e-06
3.55201199655631e-06
3.5456554586137e-06
3.53824948725297e-06
3.52980251543328e-06
3.52032464653397e-06
3.50982765320548e-06
3.49832498366997e-06
3.48583177594113e-06
3.47236487992531e-06
3.45794288697752e-06
3.44258616627628e-06
3.42631690730459e-06
3.40915916764924e-06
3.39113892514415e-06
3.37228413307167e-06
3.35262477678047e-06
3.3321929297874e-06
3.31102280724859e-06
3.28915081456149e-06
3.26661558869968e-06
3.24345802966034e-06
3.2197213192391e-06
3.19545092444607e-06
3.17069458336963e-06
3.1455022721014e-06
3.11992615217922e-06
3.09402049860468e-06
3.0678416087802e-06
3.0414476928426e-06
3.01489874603352e-06
2.98825640399157e-06
2.96158378210775e-06
2.93494530027476e-06
2.90840649444427e-06
2.88203381636464e-06
2.85589442268691e-06
2.83005595430419e-06
2.80458630640119e-06
2.77955338936811e-06
2.75502488060723e-06
2.73106796738636e-06
2.70774908119976e-06
2.6851336244277e-06
2.66328569030525e-06
2.64226777729783e-06
2.62214049901436e-06
2.6029622908825e-06
2.58478911503035e-06
2.56767416513911e-06
2.55166757335937e-06
2.5368161216358e-06
2.52316295992542e-06
2.51074733385331e-06
2.49960432440104e-06
2.48976460230549e-06
2.48125419991783e-06
2.47409430325947e-06
2.46830106687671e-06
2.46388545384569e-06
2.4608531029475e-06
2.4592042246624e-06
2.45893352726784e-06
2.46003017400736e-06
2.46247777205109e-06
2.46625439376836e-06
2.471332630613e-06
2.47767967963776e-06
2.48525746231811e-06
2.49402277500425e-06
2.50392746994515e-06
2.51491866543468e-06
2.52693898321459e-06
2.53992681084392e-06
2.55381658632752e-06
2.56853910191434e-06
2.58402182368176e-06
2.60018922341899e-06
2.61696311948196e-06
2.63426302363544e-06
2.65200649121083e-06
2.67010947206072e-06
2.68848665992921e-06
2.70705183828043e-06
2.72571822144978e-06
2.74439879097999e-06
2.76300662781999e-06
2.78145524149291e-06
2.79965889740546e-06
2.81753294333763e-06
2.83499413595745e-06
2.85196096797346e-06
2.86835399623288e-06
2.88409617071389e-06
2.89911316401052e-06
2.91333370058467e-06
2.92668988471717e-06
2.93911752571363e-06
2.95055645855835e-06
2.96095085793245e-06
2.97024954337944e-06
2.97840627339322e-06
2.9853800261977e-06
2.99113526483853e-06
2.99564218387365e-06
2.99887693449242e-06
3.00082182443696e-06
3.00146548878741e-06
3.00080302762997e-06
2.99883610688423e-06
2.99557301902707e-06
2.99102870096241e-06
2.98522470681599e-06
2.97818913414023e-06
2.96995650304978e-06
2.96056758907355e-06
2.95006921166359e-06
2.93851398104826e-06
2.92596000643463e-06
2.91247056865639e-06
2.89811376041025e-06
2.88296209727315e-06
2.8670921027429e-06
2.8505838706372e-06
2.83352060836614e-06
2.81598816481677e-06
2.79807454673823e-06
2.77986942753772e-06
2.7614636523876e-06
2.74294874360808e-06
2.72441641036766e-06
2.70595806668466e-06
2.68766436146913e-06
2.66962472399211e-06
2.65192692777887e-06
2.63465667552677e-06
2.61789720728919e-06
2.60172893389336e-06
2.58622909737254e-06
2.57147146002249e-06
2.55752602345295e-06
2.54445877866862e-06
2.53233148783211e-06
2.52120149804612e-06
2.51112158733552e-06
2.5021398429865e-06
2.49429957237018e-06
2.48763924622829e-06
2.48219247412545e-06
2.47798801143016e-06
2.47504979681019e-06
2.47339701882868e-06
2.47304420982536e-06
2.47400136490039e-06
2.47627408352039e-06
2.47986373102934e-06
2.4847676171284e-06
2.49097918814349e-06
2.49848822960441e-06
2.50728107532073e-06
2.51734081880223e-06
2.52864752262789e-06
2.54117842132045e-06
2.55490811346601e-06
2.56980873912244e-06
2.58585013885901e-06
2.60299999112991e-06
2.62122392537056e-06
2.64048560938743e-06
2.66074681110634e-06
2.68196743612547e-06
2.70410554350129e-06
2.7271173428421e-06
2.75095717631924e-06
2.77557748970536e-06
2.80092879689408e-06
2.82695964241746e-06
2.85361656625381e-06
2.88084407480225e-06
2.9085846213855e-06
2.93677859908367e-06
2.9653643481274e-06
2.99427817951403e-06
3.02345441600063e-06
3.0528254512369e-06
3.08232182757443e-06
3.11187233301283e-06
3.14140411774464e-06
3.17084283075401e-06
3.20011277682729e-06
3.22913709409201e-06
3.25783795181295e-06
3.28613676770796e-06
3.31395444357562e-06
3.34121161756684e-06
3.3678289309493e-06
3.39372730670783e-06
3.41882823690311e-06
3.4430540755553e-06
3.46632833406137e-06
3.48857597677669e-06
3.5097237152185e-06
3.52970030012783e-06
3.54843681113612e-06
3.56586694395612e-06
3.58192729496107e-06
3.59655764290361e-06
3.60970122743452e-06
3.62130502395694e-06
3.63132001409425e-06
3.63970145062592e-06
3.64640911522107e-06
3.6514075667978e-06
3.65466637795905e-06
3.6561603567338e-06
3.65586975071634e-06
3.65378043056585e-06
3.64988404973751e-06
3.64417817739345e-06
3.63666640173885e-06
3.62735840143383e-06
3.61626998306348e-06
3.60342308283073e-06
3.58884573081191e-06
3.5725719765849e-06
3.55464177598626e-06
3.53510083997681e-06
3.51400044762837e-06
3.49139722578837e-06
3.46735289812268e-06
3.44193400626445e-06
3.41521160588391e-06
3.38726094064847e-06
3.35816109717442e-06
3.32799464407244e-06
3.29684725798964e-06
3.26480733918075e-06
3.23196561873041e-06
3.19841475924689e-06
3.16424895070558e-06
3.12956350306583e-06
3.09445443720049e-06
3.05901807550827e-06
3.02335063337784e-06
2.98754781259999e-06
2.95170439806922e-06
2.91591385971293e-06
2.88026796231056e-06
2.84485638637653e-06
2.80976636338317e-06
2.77508232833637e-06
2.74088559225632e-06
2.70725403663113e-06
2.67426183152011e-06
2.64197917872944e-06
2.61047208131612e-06
2.57980214048404e-06
2.55002638062613e-06
2.52119710283466e-06
2.49336176671975e-06
2.46656289993811e-06
2.44083803453097e-06
2.41621966907692e-06
2.39273525580625e-06
2.37040721212932e-06
2.3492529563706e-06
2.32928496774326e-06
2.31051087067648e-06
2.29293354350363e-06
2.27655125126019e-06
2.26135780197323e-06
2.24734272540806e-06
2.23449147283593e-06
2.22278563607837e-06
2.21220318393524e-06
2.20271871410977e-06
2.19430371880854e-06
2.18692686221714e-06
2.18055426801453e-06
2.17514981504506e-06
2.17067543925966e-06
2.16709144006588e-06
2.16435678927908e-06
2.16242944096105e-06
2.16126664056977e-06
2.16082523197363e-06
2.16106196093674e-06
2.16193377364121e-06
2.16339810871564e-06
2.16541318113703e-06
2.16793825630087e-06
2.17093391252779e-06
2.17436229027076e-06
2.17818732623486e-06
2.18237497046532e-06
2.18689338424525e-06
2.19171311647706e-06
2.19680725617118e-06
2.20215155871451e-06
2.20772454368628e-06
2.21350756213244e-06
2.2194848315158e-06
2.22564343718382e-06
2.2319733001714e-06
2.23846711228502e-06
2.24512024037054e-06
2.25193060221943e-06
2.25889851671357e-06
2.26602653074228e-06
2.27331922540035e-06
2.28078300413792e-06
2.28842586583862e-06
2.29625716610084e-06
2.30428737016525e-06
2.3125278009213e-06
2.32099038525736e-06
2.32968740177171e-06
2.33863123263428e-06
2.34783412222552e-06
2.35730794505828e-06
2.36706398538288e-06
2.37711273076372e-06
2.38746368174382e-06
2.39812517942096e-06
2.40910425235049e-06
2.4204064837396e-06
2.43203589950624e-06
2.443994877492e-06
2.45628407791815e-06
2.46890239498185e-06
2.48184692926724e-06
2.49511298041449e-06
2.50869405927599e-06
2.52258191859577e-06
2.53676660106913e-06
2.55123650348913e-06
2.56597845560763e-06
2.58097781234326e-06
2.59621855800797e-06
2.61168342124929e-06
2.62735399946529e-06
2.64321089159997e-06
2.65923383840452e-06
2.67540186929953e-06
2.69169345484298e-06
2.70808666361061e-06
2.72455932219473e-06
2.74108917710446e-06
2.75765405758008e-06
2.7742320386344e-06
2.79080160388833e-06
2.80734180786389e-06
2.82383243729985e-06
2.84025417084891e-06
2.85658873634289e-06
2.87281906475033e-06
2.88892943995263e-06
2.90490564343627e-06
2.92073509290382e-06
2.93640697367398e-06
2.95191236161111e-06
2.96724433622539e-06
2.98239808254013e-06
2.99737098031613e-06
3.01216267917906e-06
3.02677515807617e-06
3.04121276739438e-06
3.05548225220256e-06
3.06959275552098e-06
3.08355580109306e-06
3.09738525553351e-06
3.11109726979749e-06
3.12471019976805e-06
3.13824450563804e-06
3.15172262985525e-06
3.16516885372094e-06
3.17860913313439e-06
3.19207091428647e-06
3.2055829302532e-06
3.21917497944517e-06
3.2328776867614e-06
3.24672224808378e-06
3.2607401584748e-06
3.27496292425046e-06
3.28942175925163e-06
3.30414726634661e-06
3.31916910638183e-06
3.33451565802905e-06
3.3502136728051e-06
3.36628792981984e-06
3.38276089470589e-06
3.39965238694175e-06
3.41697925958886e-06
3.43475509541734e-06
3.45298992343716e-06
3.47168995979987e-06
3.49085737676546e-06
3.51049010297553e-06
3.53058165773638e-06
3.55112102144852e-06
3.57209254374697e-06
3.59347589038361e-06
3.61524602942694e-06
3.63737325698765e-06
3.65982326237884e-06
3.68255723234472e-06
3.70553199371642e-06
3.72870019358784e-06
3.75201051585778e-06
3.77540793271285e-06
3.79883398926462e-06
3.8222271190728e-06
3.8455229877271e-06
3.8686548611199e-06
3.89155399462745e-06
3.91415003920837e-06
3.93637146046013e-06
3.95814596690593e-06
3.97940094410355e-06
4.00006389143788e-06
4.02006285856944e-06
4.03932687839848e-06
4.0577863930807e-06
4.07537366923034e-06
4.09202319820218e-06
4.10767207744467e-06
4.12226036937866e-06
4.1357314349345e-06
4.1480322395906e-06
4.15911363033632e-06
4.16893058230511e-06
4.17744241389077e-06
4.18461296916279e-06
4.19041076660684e-06
4.19480911372116e-06
4.19778618762388e-06
4.19932508231187e-06
4.19941382345598e-06
4.19804535175905e-06
4.19521747619631e-06
4.19093279902321e-06
4.18519861511574e-06
4.17802678869509e-06
4.16943361061807e-06
4.15943963926884e-06
4.14806952782398e-06
4.13535184035244e-06
4.12131885889189e-06
4.10600638337971e-06
4.08945352612413e-06
4.07170250229976e-06
4.05279841769776e-06
4.0327890547102e-06
4.01172465733973e-06
3.98965771587233e-06
3.96664275162787e-06
3.94273610185744e-06
3.91799570449292e-06
3.89248088229258e-06
3.86625212606245e-06
3.8393708769191e-06
3.81189930773421e-06
3.78390010383375e-06
3.75543624275968e-06
3.72657077254198e-06
3.69736658757979e-06
3.66788620107561e-06
3.63819151324572e-06
3.60834357529824e-06
3.57840235016424e-06
3.54842647179632e-06
3.51847300534232e-06
3.48859721077426e-06
3.45885231274216e-06
3.42928927949688e-06
3.39995661356943e-06
3.37090015650224e-06
3.34216290945003e-06
3.31378487109633e-06
3.28580289416049e-06
3.25825056172759e-06
3.23115808455447e-06
3.20455222028472e-06
3.17845621515923e-06
3.15288976840667e-06
3.12786901910277e-06
3.10340655493612e-06
3.07951144202385e-06
3.05618927471382e-06
3.03344224422144e-06
3.01126922492951e-06
2.98966587709556e-06
2.96862476448149e-06
2.94813548510176e-06
2.9281848130641e-06
2.90875684955745e-06
2.88983318146091e-06
2.87139304657329e-06
2.8534135047764e-06
2.83586961442994e-06
2.81873461310071e-06
2.80198010160875e-06
2.78557623047687e-06
2.76949188813866e-06
2.75369489051896e-06
2.73815217177003e-06
2.72282997611792e-06
2.70769405104816e-06
2.69270984238335e-06
2.6778426920157e-06
2.66305803904794e-06
2.6483216248948e-06
2.63359970259905e-06
2.61885925030174e-06
2.60406818850767e-06
2.58919560051557e-06
2.57421195514795e-06
2.5590893307057e-06
2.54380163884129e-06
2.52832484676421e-06
2.51263719589821e-06
2.49671941486781e-06
2.48055492453123e-06
2.46413003269346e-06
2.44743411610643e-06
2.43045978734911e-06
2.41320304413204e-06
2.39566339848985e-06
2.37784398327856e-06
2.35975163348157e-06
2.34139694017683e-06
2.32279427566128e-06
2.30396178898861e-06
2.28492137178546e-06
2.26569859463246e-06
2.24632261475712e-06
2.22682605644723e-06
2.20724486630956e-06
2.18761814598195e-06
2.16798796502929e-06
2.14839915663141e-06
2.128899098491e-06
2.10953748125691e-06
2.09036606665577e-06
2.07143843738865e-06
2.05280974064029e-06
2.03453642677623e-06
2.01667598452946e-06
1.99928667380181e-06
1.98242725720344e-06
1.96615673160753e-06
1.95053406117145e-06
1.93561791331926e-06
1.92146639902398e-06
1.90813681841438e-06
1.89568541234103e-06
1.88416712014368e-06
1.87363534351218e-06
1.86414171606984e-06
1.85573587818444e-06
1.84846525657485e-06
1.84237484852569e-06
1.83750701088074e-06
1.83390125435981e-06
1.83159404403039e-06
1.83061860688221e-06
1.83100474741144e-06
1.83277867203568e-06
1.83596282313098e-06
1.84057572349862e-06
1.84663183206663e-06
1.8541414116012e-06
1.8631104092009e-06
1.8735403504196e-06
1.88542824799205e-06
1.89876652626483e-06
1.91354296249711e-06
1.92974064613758e-06
1.94733795698971e-06
1.96630856290197e-06
1.98662143736437e-06
2.00824089725318e-06
2.03112666095989e-06
2.05523392717985e-06
2.08051347459227e-06
2.10691178246916e-06
2.13437117193187e-06
2.16282996719493e-06
2.1922226757596e-06
2.22248018618001e-06
2.25352998174616e-06
2.28529636825367e-06
2.31770071401736e-06
2.35066170040612e-06
2.38409558129048e-06
2.41791644976074e-06
2.45203651027287e-06
2.48636635407565e-06
2.52081523543088e-06
2.55529134582027e-06
2.58970208316465e-06
2.62395431327037e-06
2.6579546214288e-06
2.69160955322688e-06
2.72482584479263e-06
2.75751064352756e-06
2.78957172079429e-06
2.82091767818789e-06
2.85145814906501e-06
2.88110399696621e-06
2.90976751241091e-06
2.93736260923728e-06
2.96380502121092e-06
2.98901249909837e-06
3.01290500787392e-06
3.03540492327913e-06
3.05643722666618e-06
3.07592969698635e-06
3.09381309889221e-06
3.11002136606963e-06
3.1244917790023e-06
3.13716513646572e-06
3.14798592036097e-06
3.15690245412486e-06
3.16386705567698e-06
3.16883618633555e-06
3.17177059719023e-06
3.17263547414953e-06
3.17140058247083e-06
3.16804041119476e-06
3.16253431761816e-06
3.15486667170608e-06
3.14502700005197e-06
3.13301012860768e-06
3.11881632299203e-06
3.10245142482554e-06
3.0839269822335e-06
3.06326037240048e-06
3.04047491389409e-06
3.01559996644897e-06
2.98867101599757e-06
2.95972974290128e-06
2.92882407153794e-06
2.89600819962315e-06
2.86134260587597e-06
2.82489403486852e-06
2.78673545808993e-06
2.74694601036213e-06
2.70561090071765e-06
2.66282129666388e-06
2.61867418044363e-06
2.57327217559734e-06
2.52672334206622e-06
2.47914093843576e-06
2.43064315070271e-06
2.38135278794016e-06
2.33139694614183e-06
2.28090664212979e-06
2.2300164196387e-06
2.17886392962031e-06
2.12758948661808e-06
2.07633560293615e-06
2.02524650237848e-06
1.97446761552872e-06
1.92414505875846e-06
1.87442509928044e-06
1.825453608599e-06
1.7773755067546e-06
1.73033419992163e-06
1.68447101418458e-06
1.63992462855721e-06
1.5968305104325e-06
1.55532035666349e-06
1.51552154341579e-06
1.47755658781362e-06
1.44154262423221e-06
1.40759089788518e-06
1.37580627814122e-06
1.34628679379513e-06
1.31912319231688e-06
1.29439852490318e-06
1.27218775895568e-06
1.2525574194303e-06
1.2355652603818e-06
1.2212599679943e-06
1.20968089642256e-06
1.2008578378223e-06
1.19481082797212e-06
1.19154998886642e-06
1.19107540958576e-06
1.19337706664007e-06
1.19843478484189e-06
1.20621823960564e-06
1.2166870013871e-06
1.22979062278518e-06
1.24546876863017e-06
1.2636513891719e-06
1.28425893625443e-06
1.30720262213071e-06
1.33238472034221e-06
1.35969890786477e-06
1.38903064750082e-06
1.42025760927725e-06
1.45325012938298e-06
1.48787170494454e-06
1.52397952270452e-06
1.56142501945777e-06
1.6000544719297e-06
1.63970961364808e-06
1.6802282762695e-06
1.72144505278645e-06
1.76319198004978e-06
1.80529923805246e-06
1.84759586340528e-06
1.8899104744083e-06
1.93207200511511e-06
1.97391044578625e-06
2.01525758707892e-06
2.05594776517578e-06
2.0958186048133e-06
2.13471175685913e-06
2.17247362672496e-06
2.20895608949159e-06
2.24401718718388e-06
2.2775218032295e-06
2.30934230885948e-06
2.33935917613655e-06
2.36746155243641e-06
2.39354779149456e-06
2.41752593648591e-06
2.43931415105146e-06
2.45884109492616e-06
2.47604624201796e-06
2.49088014024756e-06
2.50330461368994e-06
2.5132929082021e-06
2.52082978181142e-06
2.52591154094761e-06
2.52854602336661e-06
2.52875252842924e-06
2.52656169527414e-06
2.52201532938329e-06
2.51516617814102e-06
2.50607765629065e-06
2.49482352267299e-06
2.48148751017017e-06
2.46616291122174e-06
2.44895212153009e-06
2.42996614463996e-06
2.40932406006439e-06
2.38715245760985e-06
2.36358484049513e-06
2.33876099970355e-06
2.31282636178421e-06
2.28593131212046e-06
2.25823049556691e-06
2.22988209631254e-06
2.20104709884735e-06
2.1718885320429e-06
2.14257069865206e-06
2.11325839295268e-06
2.08411610967954e-06
2.055307247729e-06
2.0269933124003e-06
1.99933312019497e-06
1.97248201040298e-06
1.94659106781515e-06
1.92180636094944e-06
1.89826820024279e-06
1.87611042075658e-06
1.85545969400404e-06
1.83643487345551e-06
1.81914637808864e-06
1.80369561805499e-06
1.79017446617921e-06
1.77866477863606e-06
1.76923796779317e-06
1.76195462987041e-06
1.75686422973438e-06
1.75400484479689e-06
1.75340296961139e-06
1.75507338237494e-06
1.75901907416607e-06
1.76523124140309e-06
1.77368934170825e-06
1.78436121311005e-06
1.79720325628679e-06
1.81216067931037e-06
1.82916780405616e-06
1.84814843309416e-06
1.86901627548733e-06
1.89167542952052e-06
1.91602091998744e-06
1.94193928727575e-06
1.96930922510651e-06
1.99800226338778e-06
2.02788349222523e-06
2.05881232269829e-06
2.09064327958557e-06
2.12322682083708e-06
2.15641017826167e-06
2.19003821361973e-06
2.22395428405527e-06
2.25800111054483e-06
2.29202164279786e-06
2.3258599138868e-06
2.35936187790805e-06
2.3923762242036e-06
2.42475516203373e-06
2.45635516996368e-06
2.48703770456062e-06
2.51666986339501e-06
2.54512499797159e-06
2.57228327314314e-06
2.59803217068341e-06
2.62226693584535e-06
2.64489096672556e-06
2.66581614694129e-06
2.68496312246977e-06
2.70226152365198e-06
2.7176501335099e-06
2.73107700372351e-06
2.74249951981725e-06
2.75188441729763e-06
2.75920775069401e-06
2.76445481770561e-06
2.76762004096141e-06
2.76870681024602e-06
2.76772728835694e-06
2.76470218391862e-06
2.75966049441055e-06
2.75263922239654e-06
2.74368306755347e-06
2.73284409667835e-06
2.72018139346521e-06
2.7057606895462e-06
2.68965397815632e-06
2.67193911185841e-06
2.65269938601823e-06
2.63202311003241e-06
2.61000316856059e-06
2.58673657511852e-06
2.56232402034169e-06
2.53686941708846e-06
2.51047944437819e-06
2.48326309196939e-06
2.45533120719022e-06
2.42679604548062e-06
2.39777082601163e-06
2.36836929368997e-06
2.33870528881084e-06
2.30889232560227e-06
2.27904318093398e-06
2.24926949454007e-06
2.21968138218639e-06
2.19038706325028e-06
2.16149250413707e-06
2.13310107881853e-06
2.10531324753764e-06
2.07822625440038e-06
2.0519338442313e-06
2.02652599880291e-06
2.00208869241744e-06
1.97870366678984e-06
1.95644822515864e-06
1.93539504547736e-06
1.9156120124389e-06
1.89716206802735e-06
1.88010308030473e-06
1.86448773020555e-06
1.85036341620713e-06
1.83777217687476e-06
1.82675063142278e-06
1.81732993851211e-06
1.80953577345442e-06
1.8033883238281e-06
1.79890230329176e-06
1.79608698314602e-06
1.79494624094619e-06
1.7954786252023e-06
1.79767743491695e-06
1.80153081241618e-06
1.80702184766561e-06
1.81412869211189e-06
1.82282468013143e-06
1.83307845642958e-06
1.84485410815462e-06
1.85811130097514e-06
1.87280541883133e-06
1.88888770743041e-06
1.90630542174686e-06
1.92500197780388e-06
1.94491710895206e-06
1.9659870268983e-06
1.98814458798422e-06
2.01131946560816e-06
2.03543833003706e-06
2.0604250370216e-06
2.0862008265821e-06
2.11268453311487e-06
2.13979280762698e-06
2.16744035250012e-06
2.19554016877785e-06
2.22400381561428e-06
2.25274168121518e-06
2.28166326430333e-06
2.3106774648379e-06
2.33969288248378e-06
2.3686181212587e-06
2.39736209888563e-06
2.42583435951727e-06
2.45394538854976e-06
2.48160692818142e-06
2.5087322922477e-06
2.53523667872055e-06
2.56103747813872e-06
2.58605457620418e-06
2.61021064890279e-06
2.63343144876674e-06
2.65564608117832e-06
2.67678726980345e-06
2.6967916102822e-06
2.71559981119538e-06
2.73315692110034e-06
2.74941254013493e-06
2.76432101439203e-06
2.77784161104668e-06
2.78993867216831e-06
2.80058174539389e-06
2.80974569025746e-06
2.81741075986044e-06
2.82356265839918e-06
2.82819257554298e-06
2.83129719877058e-06
2.8328787047458e-06
2.83294473082351e-06
2.8315083278572e-06
2.82858789556396e-06
2.82420710170595e-06
2.81839478619869e-06
2.81118485094807e-06
2.80261613580809e-06
2.79273228062335e-06
2.78158157295987e-06
2.76921678091768e-06
2.75569497039969e-06
2.74107730633579e-06
2.72542883750984e-06
2.70881826471663e-06
2.69131769202943e-06
2.673002361159e-06
2.65395036936625e-06
2.6342423721041e-06
2.61396127232199e-06
2.59319189897583e-06
2.57202067761e-06
2.55053529586847e-06
2.5288243665125e-06
2.50697709009596e-06
2.48508291897798e-06
2.46323122390254e-06
2.44151096401523e-06
2.42001036097982e-06
2.39881657778345e-06
2.37801540277869e-06
2.35769093940129e-06
2.33792530180005e-06
2.31879831636843e-06
2.30038722896873e-06
2.28276641758175e-06
2.26600711024834e-06
2.25017710844935e-06
2.23534051637437e-06
2.22155747673657e-06
2.20888391389589e-06
2.19737128520771e-06
2.18706634189173e-06
2.17801090128974e-06
2.17024163290277e-06
2.16378986083199e-06
2.15868138516752e-06
2.1549363246069e-06
2.15256898228501e-06
2.1515877365315e-06
2.15199495802839e-06
2.15378695457228e-06
2.15695394433103e-06
2.16148005815446e-06
2.16734337120018e-06
2.17451596389772e-06
2.18296401208742e-06
2.19264790599422e-06
2.20352239749461e-06
2.215536774913e-06
2.22863506438305e-06
2.2427562566613e-06
2.25783455817897e-06
2.27379966505181e-06
2.29057705875262e-06
2.30808832217873e-06
2.32625147484806e-06
2.34498132586593e-06
2.36418984314436e-06
2.38378653721697e-06
2.40367885793626e-06
2.4237726023316e-06
2.44397233186228e-06
2.46418179717812e-06
2.48430436836037e-06
2.50424346854907e-06
2.52390300889897e-06
2.54318782289234e-06
2.56200409810179e-06
2.58025980349599e-06
2.59786511032446e-06
2.61473280456984e-06
2.63077868900674e-06
2.64592197308524e-06
2.66008564909547e-06
2.67319685325693e-06
2.68518721044228e-06
2.69599316118455e-06
2.70555626947989e-06
2.71382350975109e-06
2.72074753121401e-06
2.7262868977791e-06
2.73040630152821e-06
2.73307674777021e-06
2.7342757097154e-06
2.73398725087045e-06
2.7322021132729e-06
2.72891776966937e-06
2.72413843781169e-06
2.71787505532992e-06
2.71014521417879e-06
2.70097305436939e-06
2.69038911746533e-06
2.67843016100329e-06
2.6651389354749e-06
2.65056392575285e-06
2.63475905899032e-06
2.61778338126887e-06
2.59970070569652e-06
2.58057923515517e-06
2.56049116328483e-06
2.53951225746283e-06
2.51772142748569e-06
2.49520028344668e-06
2.4720326859868e-06
2.44830429172143e-06
2.42410209625176e-06
2.3995139768424e-06
2.37462823670075e-06
2.34953315291025e-06
2.32431653040573e-06
2.29906526477054e-06
2.27386491688353e-06
2.248799302441e-06
2.22395009916179e-06
2.19939647416861e-06
2.17521473371403e-06
2.15147799712924e-06
2.12825589666129e-06
2.10561430475843e-06
2.08361509031967e-06
2.06231590533659e-06
2.04177000315688e-06
2.02202608931637e-06
2.00312820559292e-06
1.9851156476618e-06
1.96802291644998e-06
1.95187970297182e-06
1.93671090609915e-06
1.92253668241762e-06
1.90937252706555e-06
1.89722938422352e-06
1.88611378569422e-06
1.87602801577026e-06
1.8669703003398e-06
1.85893501794806e-06
1.85191293031984e-06
1.84589142964472e-06
1.84085479972902e-06
1.83678448792782e-06
1.83365938460656e-06
1.83145610678852e-06
1.83014928269215e-06
1.8297118340962e-06
1.83011525387187e-06
1.83132987649811e-06
1.83332513981703e-06
1.8360698366492e-06
1.83953235521195e-06
1.84368090761087e-06
1.84848374597807e-06
1.85390936604608e-06
1.85992669802432e-06
1.8665052845809e-06
1.87361544556711e-06
1.88122842892538e-06
1.88931654707731e-06
1.89785329806495e-06
1.90681347083382e-06
1.91617323423369e-06
1.92591020946693e-06
1.93600352579236e-06
1.94643385933115e-06
1.95718345486534e-06
1.96823613057886e-06
1.97957726576237e-06
1.99119377160698e-06
2.00307404539184e-06
2.01520790864549e-06
2.02758653018104e-06
2.04020233520982e-06
2.05304890202246e-06
2.066120847994e-06
2.07941370685058e-06
2.09292379917081e-06
2.10664809805012e-06
2.1205840918372e-06
2.13472964586597e-06
2.14908286508956e-06
2.16364195944156e-06
2.17840511361555e-06
2.19337036275662e-06
2.2085354752765e-06
2.22389784366324e-06
2.23945438384551e-06
2.25520144348566e-06
2.27113471953263e-06
2.28724918538735e-06
2.3035390280209e-06
2.31999759532225e-06
2.33661735390184e-06
2.35338985758817e-06
2.37030572688277e-06
2.38735463960784e-06
2.40452533287162e-06
2.42180561633874e-06
2.43918239666698e-06
2.45664171287106e-06
2.47416878230244e-06
2.49174805688811e-06
2.50936328923288e-06
2.52699760816118e-06
2.54463360328175e-06
2.56225341817948e-06
2.57983885180619e-06
2.59737146751588e-06
2.6148327090207e-06
2.63220402240344e-06
2.64946698322247e-06
2.66660342764538e-06
2.68359558643542e-06
2.70042622051445e-06
2.71707875674241e-06
2.73353742245346e-06
2.74978737715312e-06
2.76581483964202e-06
2.78160720876982e-06
2.79715317615028e-06
2.81244282957513e-06
2.82746774650606e-06
2.84222107768111e-06
2.85669762126848e-06
2.87089388800428e-06
2.88480815743371e-06
2.89844052492572e-06
2.91179293873989e-06
2.92486922623078e-06
2.93767510831031e-06
2.95021820145132e-06
2.96250800666233e-06
2.97455588494773e-06
2.98637501885144e-06
2.99798035984638e-06
3.00938856160038e-06
3.02061789945039e-06
3.03168817662724e-06
3.04262061781741e-06
3.05343775055315e-06
3.064163274775e-06
3.07482192081352e-06
3.08543929606643e-06
3.09604172081601e-06
3.10665605389522e-06
3.11730950922017e-06
3.12802946448748e-06
3.1388432634805e-06
3.1497780134065e-06
3.16086037864484e-06
3.17211637244083e-06
3.18357114847309e-06
3.19524879463708e-06
3.2071721315521e-06
3.21936251814657e-06
3.23183966636509e-06
3.24462146678326e-06
3.25772382684789e-06
3.2711605235804e-06
3.28494307276237e-06
3.29908061668762e-06
3.31357983241791e-06
3.32844486212509e-06
3.34367726660633e-06
3.35927600250961e-06
3.37523742329663e-06
3.39155530355353e-06
3.40822088594862e-06
3.42522294994262e-06
3.44254790130837e-06
3.46017988160247e-06
3.47810089684508e-06
3.49629096467902e-06
3.51472827916101e-06
3.53338939214694e-06
3.55224941001307e-06
3.57128220417758e-06
3.59046063352413e-06
3.60975677640337e-06
3.62914216945777e-06
3.64858805013963e-06
3.66806559953666e-06
3.68754618204415e-06
3.7070015785605e-06
3.72640421028126e-06
3.74572735085051e-06
3.76494532548646e-06
3.78403369650669e-06
3.80296943527146e-06
3.82173108089385e-06
3.84029888612993e-06
3.85865495069781e-06
3.87678334197319e-06
3.89467020266937e-06
3.91230384479034e-06
3.92967482887729e-06
3.94677602740237e-06
3.96360267121246e-06
3.98015237831647e-06
3.9964251649976e-06
4.01242343995655e-06
4.02815198267423e-06
4.04361790736505e-06
4.05883061395445e-06
4.07380172769006e-06
4.08854502933615e-06
4.10307637820649e-06
4.117413630329e-06
4.13157655379685e-06
4.14558674299655e-06
4.15946753299412e-06
4.17324391489261e-06
4.18694245249604e-06
4.20059120022211e-06
4.21421962191146e-06
4.22785850991585e-06
4.24153990360608e-06
4.2552970063264e-06
4.26916409996013e-06
4.28317645671198e-06
4.29737024835833e-06
4.31178245383934e-06
4.3264507664749e-06
4.34141350229439e-06
4.35670951110338e-06
4.37237809198127e-06
4.38845891479346e-06
4.40499194899199e-06
4.42201740062128e-06
4.43957565815738e-06
4.45770724752534e-06
4.47645279623761e-06
4.49585300604434e-06
4.51594863284011e-06
4.53678047195281e-06
4.5583893465155e-06
4.58081609648511e-06
4.60410156589698e-06
4.62828658589502e-06
4.65341195086432e-06
4.67951838476337e-06
4.70664649470234e-06
4.73483670902317e-06
4.76412919763202e-06
4.79456377311505e-06
4.82617977212873e-06
4.85901591744297e-06
4.89311016161658e-06
4.92849951365664e-06
4.96521985045078e-06
5.00330571545113e-06
5.04279010785909e-06
5.08370426602085e-06
5.12607744865222e-06
5.16993671695354e-06
5.21530671993318e-06
5.26220948457436e-06
5.31066421196144e-06
5.36068708012948e-06
5.41229105414266e-06
5.46548570364637e-06
5.52027702792735e-06
5.57666728858354e-06
5.63465485033684e-06
5.69423403104188e-06
5.75539496221748e-06
5.81812346144222e-06
5.88240091791159e-06
5.94820419240246e-06
6.01550553272812e-06
6.08427250549707e-06
6.15446794474365e-06
6.22604991779176e-06
6.29897170836779e-06
6.37318181637769e-06
6.4486239730339e-06
6.52523716948591e-06
6.60295569711584e-06
6.68170919832314e-06
6.76142272762352e-06
6.84201682363847e-06
6.92340759267805e-06
7.00550680427808e-06
7.08822199872697e-06
7.17145660662225e-06
7.25511008067294e-06
7.33907803993471e-06
7.42325242633361e-06
7.50752167302592e-06
7.59177088422263e-06
7.67588202656805e-06
7.75973413268995e-06
7.84320351792869e-06
7.92616401160711e-06
8.00848720464201e-06
8.09004271566662e-06
8.17069847788548e-06
8.25032104865885e-06
8.32877594361658e-06
8.40592799710278e-06
8.48164175079582e-06
8.55578187212927e-06
8.62821360349364e-06
8.69880324216606e-06
8.76741864966234e-06
8.83392978792587e-06
8.89820927863767e-06
8.9601329811326e-06
9.0195805841513e-06
9.07643620703215e-06
9.13058900668788e-06
9.18193378722443e-06
9.23037160887088e-06
9.2758103920474e-06
9.31816551140665e-06
9.35736037409521e-06
9.39332697659435e-06
9.42600643522922e-06
9.45534948635906e-06
9.48131695297231e-06
9.50388017486359e-06
9.52302139995311e-06
9.53873413463292e-06
9.55102345112189e-06
9.55990624969735e-06
9.56541147355373e-06
9.56758027400385e-06
9.56646612371789e-06
9.56213487569401e-06
9.55466476580362e-06
9.54414635720327e-06
9.53068242568678e-06
9.51438778608744e-06
9.49538906106425e-06
9.47382439491114e-06
9.44984311606141e-06
9.42360535226678e-06
9.39528160185564e-06
9.36505226329407e-06
9.33310712399138e-06
9.29964480839538e-06
9.26487218515092e-06
9.22900373327652e-06
9.19226086752984e-06
9.1548712231824e-06
9.1170679006033e-06
9.07908867079448e-06
9.04117514434335e-06
9.00357190774096e-06
8.96652563219466e-06
8.93028416063097e-06
8.89509557836952e-06
8.86120727204061e-06
8.82886498013289e-06
8.79831183767465e-06
8.76978741744113e-06
8.74352677078828e-06
8.71975947224613e-06
8.69870867268188e-06
8.68059016590003e-06
8.66561147321623e-06
8.65397095011001e-06
8.64585691859992e-06
8.64144682846575e-06
8.64090644984353e-06
8.64438909908225e-06
8.6520348992804e-06
8.66397007685351e-06
8.68030629577679e-06
8.70114003151626e-06
8.72655198695709e-06
8.75660655289421e-06
8.79135131580115e-06
8.83081661547028e-06
8.87501515476143e-06
8.92394166341546e-06
8.97757261793238e-06
9.03586601974935e-06
9.09876123406517e-06
9.1661788916696e-06
9.23802085646598e-06
9.31417026226406e-06
9.39449162351242e-06
9.47883102527196e-06
9.56701639750419e-06
9.65885787775269e-06
9.75414826487112e-06
9.85266356486508e-06
9.95416362828577e-06
1.00583928770144e-05
1.01650811168794e-05
1.02739444316266e-05
1.03846861534875e-05
1.0496997905802e-05
1.06105607135181e-05
1.07250461778513e-05
1.0840117712101e-05
1.09554318366109e-05
1.10706395318555e-05
1.11853876493645e-05
1.12993203804304e-05
1.14120807820571e-05
1.15233123583684e-05
1.16326606939158e-05
1.17397751332566e-05
1.18443104989301e-05
1.19459288376414e-05
1.20443011822724e-05
1.21391093156658e-05
1.22300475212941e-05
1.2316824305929e-05
1.23991640798152e-05
1.24768087801899e-05
1.25495194243667e-05
1.2617077579562e-05
1.26792867383887e-05
1.2735973590816e-05
1.2786989184579e-05
1.2832209966534e-05
1.28715386981615e-05
1.29049052399741e-05
1.2932267201698e-05
1.29536104567732e-05
1.29689495200322e-05
1.29783277862124e-05
1.29818176248097e-05
1.29795203244805e-05
1.29715658784539e-05
1.29581126016856e-05
1.29393465708821e-05
1.29154808797236e-05
1.28867547034135e-05
1.28534321696285e-05
1.2815801037712e-05
1.27741711941805e-05
1.27288729785996e-05
1.26802553579569e-05
1.26286839694637e-05
1.25745390520406e-05
1.2518213286427e-05
1.24601095634721e-05
1.24006387001693e-05
1.23402171235402e-05
1.227926454305e-05
1.2218201632044e-05
1.21574477374483e-05
1.20974186349884e-05
1.20385243449464e-05
1.19811670213104e-05
1.1925738925346e-05
1.18726204933233e-05
1.18221785073443e-05
1.17747643775915e-05
1.17307125434843e-05
1.16903390000145e-05
1.16539399540257e-05
1.16217906135948e-05
1.15941441121646e-05
1.1571230567742e-05
1.15532562763386e-05
1.1540403037958e-05
1.15328276129968e-05
1.15306613070241e-05
1.15340096824881e-05
1.15429523966633e-05
1.15575431655333e-05
1.15778098528009e-05
1.1603754681797e-05
1.16353545662051e-05
1.16725615539014e-05
1.17153033771369e-05
1.17634841015866e-05
1.18169848662025e-05
1.1875664705459e-05
1.19393614459019e-05
1.20078926701203e-05
1.208105674316e-05
1.2158633898198e-05
1.22403873790837e-05
1.23260646367246e-05
1.24153985748679e-05
1.25081088395583e-05
1.26039031460367e-05
1.27024786369953e-05
1.28035232665316e-05
1.29067172044738e-05
1.30117342556993e-05
1.31182432884984e-05
1.32259096650879e-05
1.33343966663308e-05
1.34433669016939e-05
1.35524836945601e-05
1.36614124324889e-05
1.37698218722566e-05
1.3877385390617e-05
1.39837821734711e-05
1.40886983381726e-05
1.41918279855776e-05
1.42928741797946e-05
1.43915498542159e-05
1.44875786425145e-05
1.45806956333234e-05
1.46706480477e-05
1.47571958394773e-05
1.4840112220199e-05
1.49191841121442e-05
1.49942125345342e-05
1.50650129291246e-05
1.51314154319492e-05
1.519326509798e-05
1.52504220851501e-05
1.53027618040078e-05
1.53501750393939e-05
1.53925680506537e-05
1.54298626565985e-05
1.54619963107992e-05
1.54889221721827e-05
1.55106091754421e-05
1.55270421053018e-05
1.55382216782823e-05
1.55441646356085e-05
1.55449038512881e-05
1.55404884594764e-05
1.55309840043686e-05
1.55164726138962e-05
1.5497053195889e-05
1.54728416525677e-05
1.54439711066476e-05
1.54105921301034e-05
1.5372872964727e-05
1.5330999721764e-05
1.52851765459502e-05
1.52356257271517e-05
1.51825877409558e-05
1.51263211989076e-05
1.50671026905539e-05
1.500522650305e-05
1.49410042086045e-05
1.48747641137859e-05
1.48068505667931e-05
1.47376231197397e-05
1.46674555441976e-05
1.45967347005865e-05
1.45258592653506e-05
1.44552383233524e-05
1.43852898354967e-05
1.43164389926524e-05
1.42491164666972e-05
1.41837565689922e-05
1.41207953268628e-05
1.40606684898416e-05
1.40038094787079e-05
1.395064729066e-05
1.39016043729462e-05
1.38570944754671e-05
1.38175204911e-05
1.37832722913373e-05
1.37547245644247e-05
1.37322346635019e-05
1.3716140473129e-05
1.37067583036275e-05
1.37043808234238e-05
1.37092750400808e-05
1.37216803415915e-05
1.37418066113279e-05
1.3769832432426e-05
1.38059033992521e-05
1.38501305540451e-05
1.39025889657788e-05
1.39633164662146e-05
1.40323125555692e-05
1.41095374875558e-05
1.41949115410776e-05
1.4288314483872e-05
1.43895852321109e-05
1.44985217092035e-05
1.46148809063743e-05
1.4738379146648e-05
1.48686925526736e-05
1.5005457717765e-05
1.51482725790631e-05
1.52966974919425e-05
1.54502565052489e-05
1.56084388368377e-05
1.57707005477678e-05
1.59364664116483e-05
1.61051319736434e-05
1.62760657917948e-05
1.64486118515544e-05
1.66220921426966e-05
1.67958093863843e-05
1.69690498993687e-05
1.71410865821299e-05
1.73111820178662e-05
1.74785916692801e-05
1.76425671600476e-05
1.78023596281637e-05
1.79572231394152e-05
1.81064181506293e-05
1.8249215012931e-05
1.83848975043804e-05
1.85127663795866e-05
1.86321429221117e-05
1.87423724839464e-05
1.88428279946718e-05
1.89329134209181e-05
1.90120671547296e-05
1.9079765308112e-05
1.91355248907358e-05
1.917890684842e-05
1.92095189409792e-05
1.92270184385463e-05
1.9231114615356e-05
1.92215710196483e-05
1.91982074982522e-05
1.91609019545472e-05
1.91095918188414e-05
1.90442752109273e-05
1.89650117756907e-05
1.88719231740521e-05
1.87651932133329e-05
1.86450676037035e-05
1.85118533308646e-05
1.83659176393665e-05
1.82076866253239e-05
1.8037643440773e-05
1.78563261140232e-05
1.76643249919937e-05
1.74622798137616e-05
1.72508764308527e-05
1.70308431985029e-05
1.68029470705575e-05
1.65679894363657e-05
1.63268017405028e-05
1.60802409267725e-05
1.58291847479648e-05
1.55745269825165e-05
1.53171725982269e-05
1.50580329013725e-05
1.47980207071326e-05
1.45380455645645e-05
1.42790090667363e-05
1.40218002740555e-05
1.37672912762453e-05
1.35163329157518e-05
1.32697506926531e-05
1.30283408685127e-05
1.27928667843525e-05
1.25640554061232e-05
1.23425941095974e-05
1.21291277152698e-05
1.19242557826145e-05
1.17285301719458e-05
1.15424528810372e-05
1.13664741624423e-05
1.12009909262308e-05
1.10463454317128e-05
1.09028242706055e-05
1.07706576429368e-05
1.06500189259356e-05
1.05410245354052e-05
1.04437340784614e-05
1.03581507956972e-05
1.0284222289553e-05
1.02218415339403e-05
1.01708481581335e-05
1.01310299958034e-05
1.01021248879868e-05
1.00838227269176e-05
1.00757677261185e-05
1.00775609010478e-05
1.00887627439307e-05
1.01088960760847e-05
1.01374490607867e-05
1.01738783593063e-05
1.02176124121787e-05
1.02680548273833e-05
1.03245878569543e-05
1.03865759434556e-05
1.04533693173803e-05
1.05243076256721e-05
1.05987235703643e-05
1.06759465351447e-05
1.07553061768021e-05
1.08361359581128e-05
1.0917776598709e-05
1.09995794205414e-05
1.10809095644999e-05
1.11611490548761e-05
1.12396996895053e-05
1.13159857364351e-05
1.13894564226473e-05
1.14595882054046e-05
1.15258868206116e-05
1.15878891046355e-05
1.16451645871203e-05
1.1697316853539e-05
1.17439846779382e-05
1.17848429282764e-05
1.18196032485525e-05
1.18480145233206e-05
1.1869863131108e-05
1.18849729939648e-05
1.18932054313583e-05
1.18944588279718e-05
1.18886681262853e-05
1.18758041557907e-05
1.18558728114287e-05
1.18289140943826e-05
1.17950010285996e-05
1.17542384662659e-05
1.17067617950789e-05
1.1652735559623e-05
1.1592352008332e-05
1.15258295762454e-05
1.14534113120564e-05
1.13753632560101e-05
1.12919727732721e-05
1.12035468457692e-05
1.11104103247207e-05
1.1012904146554e-05
1.09113835165845e-05
1.08062160670358e-05
1.06977799977363e-05
1.05864622085411e-05
1.0472656432114e-05
1.0356761374522e-05
1.0239178869594e-05
1.01203120516196e-05
1.00005635500538e-05
9.88033370964697e-06
9.76001883975895e-06
9.64000949715108e-06
9.52068880677566e-06
9.4024308248451e-06
9.28559894824625e-06
9.1705443749082e-06
9.05760462122419e-06
8.94710210437181e-06
8.8393427983976e-06
8.73461497285785e-06
8.63318802198963e-06
8.53531139136084e-06
8.44121360799808e-06
8.35110141916273e-06
8.26515904425021e-06
8.18354754379115e-06
8.10640430924839e-06
8.03384267704958e-06
7.96595166978106e-06
7.90279586657328e-06
7.84441540357534e-06
7.79082610425349e-06
7.74201973814147e-06
7.69796440560369e-06
7.6586050451053e-06
7.62386405844052e-06
7.5936420485086e-06
7.56781866373821e-06
7.54625354312505e-06
7.52878735577298e-06
7.51524292852554e-06
7.50542645470502e-06
7.49912877627975e-06
7.49612673103166e-06
7.49618455547403e-06
7.49905533335793e-06
7.50448247864562e-06
7.51220124092176e-06
7.52194022056017e-06
7.53342288089464e-06
7.54636904548156e-06
7.56049637029787e-06
7.57552178288289e-06
7.59116288233518e-06
7.60713929546652e-06
7.62317398548991e-06
7.63899451051862e-06
7.65433422973473e-06
7.66893345519764e-06
7.68254054698515e-06
7.69491294890388e-06
7.70581816151776e-06
7.71503464879392e-06
7.72235267436603e-06
7.72757506335811e-06
7.73051788580383e-06
7.73101105775251e-06
7.72889885622823e-06
7.724040344659e-06
7.71630970655133e-06
7.70559648705763e-06
7.69180574426198e-06
7.67485811381891e-06
7.65468979149614e-06
7.63125243823398e-06
7.6045130120434e-06
7.57445353091235e-06
7.54107077105764e-06
7.50437590528288e-06
7.46439408671885e-06
7.42116398363687e-06
7.37473727113978e-06
7.32517808522162e-06
7.27256244399045e-06
7.21697764004256e-06
7.15852160747354e-06
7.09730226706765e-06
7.0334368536199e-06
6.96705122957768e-06
6.89827918888284e-06
6.82726175416254e-06
6.75414646962658e-06
6.67908669149519e-06
6.60224087760217e-06
6.52377187785408e-06
6.44384622723079e-06
6.36263344292473e-06
6.28030532730978e-06
6.19703527903399e-06
6.11299761556394e-06
6.02836691142014e-06
5.94331735658698e-06
5.85802213908335e-06
5.77265285479052e-06
5.68737894674996e-06
5.60236717546794e-06
5.51778112137428e-06
5.43378072055839e-06
5.3505218352041e-06
5.26815586048661e-06
5.18682936977371e-06
5.10668379974312e-06
5.02785517665738e-06
4.95047388466449e-06
4.87466447660363e-06
4.80054552726724e-06
4.72822952831701e-06
4.65782282311549e-06
4.58942557873802e-06
4.52313179146305e-06
4.45902932113029e-06
4.39719994892377e-06
4.33771945243686e-06
4.28065769141752e-06
4.22607869750323e-06
4.17404076164221e-06
4.1245965137894e-06
4.07779299074097e-06
4.03367168934964e-06
3.99226860353863e-06
3.95361424441506e-06
3.91773364355802e-06
3.88464634038828e-06
3.85436635527245e-06
3.82690215042893e-06
3.80225658083679e-06
3.78042683753959e-06
3.76140438622292e-06
3.74517490460539e-06
3.73171822267045e-06
3.72100826981088e-06
3.71301303254911e-06
3.70769452581581e-06
3.70500878003695e-06
3.70490584566586e-06
3.70732981639244e-06
3.71221887206573e-06
3.71950534231849e-06
3.72911579192896e-06
3.74097112904229e-06
3.75498673741439e-06
3.77107263373622e-06
3.78913365082619e-06
3.80906964710487e-06
3.83077574234252e-06
3.85414257920573e-06
3.87905660966029e-06
3.90540040491802e-06
3.93305298741595e-06
3.96189018323244e-06
3.99178499328555e-06
4.02260798164343e-06
4.05422767939755e-06
4.08651100278135e-06
4.11932368435853e-06
4.15253071593934e-06
4.18599680136496e-06
4.21958681657799e-06
4.25316627369241e-06
4.28660178529412e-06
4.31976152512662e-06
4.35251568177495e-06
4.38473690291247e-06
4.41630072886352e-06
4.44708601535646e-06
4.47697534623296e-06
4.50585543752405e-06
4.53361753469961e-06
4.56015780498136e-06
4.58537772632143e-06
4.6091844740361e-06
4.63149130527718e-06
4.6522179406529e-06
4.67129094150523e-06
4.68864408075684e-06
4.70421870493513e-06
4.71796408485452e-06
4.72983775227967e-06
4.7398058195705e-06
4.74784327882437e-06
4.75393427639091e-06
4.75807235785235e-06
4.76026067777228e-06
4.76051216804218e-06
4.75884965891156e-06
4.75530594801054e-06
4.74992381463396e-06
4.74275597855414e-06
4.73386500395796e-06
4.72332314957076e-06
4.71121216599415e-06
4.69762304122695e-06
4.68265569552641e-06
4.66641862723247e-06
4.64902851175513e-06
4.63060975633625e-06
4.61129401322786e-06
4.59121965359966e-06
4.57053120398376e-06
4.54937874658522e-06
4.52791728449617e-06
4.50630607288366e-06
4.48470791762344e-06
4.46328844352055e-06
4.44221533498248e-06
4.42165755263887e-06
4.40178452996542e-06
4.38276535456154e-06
4.36476793926029e-06
4.34795818848621e-06
4.33249916512344e-06
4.31855026274361e-06
4.3062663875737e-06
4.29579715415596e-06
4.2872860982596e-06
4.28086991025577e-06
4.27667769192821e-06
4.27483023956917e-06
4.2754393561172e-06
4.27860719496888e-06
4.28442563801519e-06
4.29297571054144e-06
4.30432703590012e-06
4.31853733322453e-06
4.33565196186781e-06
4.35570351676221e-06
4.37871147939542e-06
4.40468192936856e-06
4.43360732143836e-06
4.46546633265349e-06
4.50022378375757e-06
4.53783063843966e-06
4.57822408326915e-06
4.62132769031601e-06
4.66705166358644e-06
4.71529316951003e-06
4.76593675082215e-06
4.81885482234283e-06
4.87390824639097e-06
4.93094698484688e-06
4.98981082411489e-06
5.0503301683897e-06
5.11232689569545e-06
5.17561527020341e-06
5.24000290346262e-06
5.30529175653517e-06
5.3712791746487e-06
5.4377589457693e-06
5.50452237432968e-06
5.57135936114306e-06
5.63805948029703e-06
5.70441304373483e-06
5.77021214466574e-06
5.8352516721593e-06
5.89933029103033e-06
5.96225138275706e-06
6.02382394413367e-06
6.08386344056811e-06
6.14219261075003e-06
6.19864221930142e-06
6.25305175430233e-06
6.30527006733853e-06
6.35515595484659e-06
6.40257868084625e-06
6.44741844239255e-06
6.48956677994027e-06
6.52892693506832e-06
6.56541415769226e-06
6.59895596423979e-06
6.62949234755481e-06
6.65697593874852e-06
6.68137212093703e-06
6.70265909470967e-06
6.72082789502729e-06
6.7358823588996e-06
6.7478390427461e-06
6.75672708808076e-06
6.76258803417472e-06
6.76547557644196e-06
6.76545526931654e-06
6.76260417263295e-06
6.75701044141919e-06
6.74877286049198e-06
6.73800032660702e-06
6.72481128149831e-06
6.70933309886947e-06
6.6917014277161e-06
6.67205949381033e-06
6.6505573611527e-06
6.62735115577776e-06
6.60260225526887e-06
6.57647644832462e-06
6.54914306949347e-06
6.52077411482835e-06
6.49154334494471e-06
6.46162538280276e-06
6.43119481416837e-06
6.40042529880938e-06
6.36948870000785e-06
6.33855423912127e-06
6.30778768094436e-06
6.27735055462731e-06
6.24739941391618e-06
6.21808513953918e-06
6.18955228578096e-06
6.1619384727384e-06
6.13537382543192e-06
6.10998046085136e-06
6.08587202415127e-06
6.06315327547922e-06
6.04191972910798e-06
6.02225734651846e-06
6.00424228491533e-06
5.98794070249439e-06
5.97340862165608e-06
5.96069185123624e-06
5.94982596865223e-06
5.94083636257684e-06
5.93373833633403e-06
5.92853727172078e-06
5.92522885246045e-06
5.92379934601522e-06
5.92422594209287e-06
5.9264771459367e-06
5.9305132242987e-06
5.9362867016396e-06
5.9437429034143e-06
5.95282054235245e-06
5.96345234264504e-06
5.97556569605478e-06
5.98908334316421e-06
6.00392407217962e-06
6.02000342698845e-06
6.03723441581988e-06
6.0555282121798e-06
6.07479484066479e-06
6.09494384132034e-06
6.11588490686019e-06
6.13752848714092e-06
6.15978635507684e-06
6.18257212824074e-06
6.20580174128175e-06
6.22939386611415e-06
6.25327027895185e-06
6.27735617475668e-06
6.30158043017949e-06
6.32587581604057e-06
6.35017916049761e-06
6.37443146460498e-06
6.39857797276505e-06
6.42256820115182e-06
6.44635592729156e-06
6.46989914368909e-06
6.4931599779368e-06
6.51610458141658e-06
6.53870298877526e-06
6.5609289509294e-06
6.58275974521809e-06
6.60417596699989e-06
6.62516130708359e-06
6.64570231886663e-06
6.66578817827533e-06
6.68541043894801e-06
6.7045627846918e-06
6.72324078096229e-06
6.74144162691994e-06
6.75916390965041e-06
6.77640736251928e-06
6.79317263028456e-06
6.8094610442948e-06
6.82527441164203e-06
6.84061482237065e-06
6.85548447870122e-06
6.86988554971312e-06
6.88382005408792e-06
6.89728977243138e-06
6.91029618951964e-06
6.92284046571092e-06
6.93492343579494e-06
6.94654563267194e-06
6.95770733238657e-06
6.96840861620815e-06
6.97864944482089e-06
6.98842973941261e-06
6.99774946443227e-06
7.00660870684353e-06
7.01500774698013e-06
7.02294711703866e-06
7.03042764493275e-06
7.03745048312842e-06
7.04401712340983e-06
7.0501293989858e-06
7.05578947527547e-06
7.06099983063476e-06
7.06576322842625e-06
7.07008268201178e-06
7.07396141415583e-06
7.07740281188648e-06
7.08041037728142e-06
7.08298767422039e-06
7.08513827102963e-06
7.08686567916783e-06
7.08817328861231e-06
7.08906430123123e-06
7.08954166389423e-06
7.08960800311796e-06
7.08926556259329e-06
7.08851614420993e-06
7.08736105256238e-06
7.08580104264488e-06
7.0838362704685e-06
7.08146624643065e-06
7.07868979126644e-06
7.07550499425213e-06
7.07190917303436e-06
