ch2_MVC_envelope
1.31605030951288e-08
1.39178761895321e-08
1.46857730709454e-08
1.5463163101249e-08
1.62490466820502e-08
1.70424638921452e-08
1.78425027014181e-08
1.86483066423065e-08
1.94590818215757e-08
2.02741031618024e-08
2.10927197769594e-08
2.19143594101908e-08
2.27385318901918e-08
2.35648315886028e-08
2.43929388787983e-08
2.52226206052776e-08
2.60537295755369e-08
2.68862030867657e-08
2.77200605007652e-08
2.8555399883833e-08
2.93923937352461e-08
3.02312838388049e-08
3.10723752856761e-08
3.19160297312201e-08
3.27626579609475e-08
3.36127118490505e-08
3.44666757964965e-08
3.53250577359285e-08
3.61883797900991e-08
3.7057168670953e-08
3.79319459080567e-08
3.88132179979126e-08
3.97014665697911e-08
4.0597138667844e-08
4.15006372511532e-08
4.24123120114684e-08
4.33324506030374e-08
4.42612703717224e-08
4.51989106633166e-08
4.61454257848952e-08
4.71007786884569e-08
4.80648354423304e-08
4.90373605515388e-08
5.001801318237e-08
5.10063443384404e-08
5.2001795026097e-08
5.30036954369443e-08
5.40112651652191e-08
5.50236144679205e-08
5.60397465661767e-08
5.70585609775299e-08
5.80788578608223e-08
5.90993433478865e-08
6.01186358284595e-08
6.11352731457307e-08
6.21477206492329e-08
6.31543800397187e-08
6.41535989282299e-08
6.51436810203306e-08
6.61228968279383e-08
6.70894948057505e-08
6.80417128058471e-08
6.89777897409192e-08
6.98959773424725e-08
7.07945518949817e-08
7.16718258204187e-08
7.25261589797423e-08
7.33559695491119e-08
7.41597443211906e-08
7.49360482810739e-08
7.56835333178819e-08
7.6400945958873e-08
7.70871340475618e-08
7.77410523194685e-08
7.83617668499795e-08
7.89484583593297e-08
7.95004243681104e-08
8.00170802097551e-08
8.04979589250639e-08
8.09427100852289e-08
8.1351097611089e-08
8.17229966757218e-08
8.2058389794066e-08
8.23573622161824e-08
8.26200967487761e-08
8.28468681317255e-08
8.30380370929379e-08
8.31940441979195e-08
8.33154036025565e-08
8.34026968099208e-08
8.34565665239669e-08
8.3477710683931e-08
8.34668767525783e-08
8.34248563189499e-08
8.33524800622434e-08
8.32506131090204e-08
8.31201508020753e-08
8.29620148866423e-08
8.27771501093281e-08
8.25665212192144e-08
8.23311103601605e-08
8.20719148472006e-08
8.1789945324299e-08
8.14862243010889e-08
8.11617850602081e-08
8.08176709157743e-08
8.04549347908402e-08
8.00746390704642e-08
7.96778556795561e-08
7.92656663325232e-08
7.8839162905132e-08
7.83994478855314e-08
7.79476348667784e-08
7.74848490438875e-08
7.70122276742433e-08
7.65309204549523e-08
7.60420897692556e-08
7.55469107584792e-08
7.50465711845996e-08
7.45422710591474e-08
7.40352220258442e-08
7.35266464957784e-08
7.30177765422777e-08
7.25098525650535e-08
7.20041217293885e-08
7.15018361792648e-08
7.10042510181634e-08
7.05126220510372e-08
7.00282032859982e-08
6.95522442032695e-08
6.90859868105615e-08
6.86306625163639e-08
6.81874888625383e-08
6.77576661619186e-08
6.73423740849936e-08
6.69427682353223e-08
6.65599767501896e-08
6.6195096962696e-08
6.58491921623577e-08
6.55232884908255e-08
6.52183720063663e-08
6.49353859460343e-08
6.4675228209376e-08
6.44387490826342e-08
6.42267492170818e-08
6.40399778682738e-08
6.38791313947872e-08
6.37448520076017e-08
6.36377267575502e-08
6.35582867493801e-08
6.35070065751758e-08
6.34843039637714e-08
6.34905396433108e-08
6.35260174100222e-08
6.35909843886739e-08
6.36856314618829e-08
6.38100938394185e-08
6.39644517360441e-08
6.4148731125866e-08
6.43629045400139e-08
6.46068918716628e-08
6.48805611500114e-08
6.51837292467992e-08
6.55161624877985e-08
6.58775771557886e-08
6.62676398853083e-08
6.6685967957486e-08
6.71321295037123e-08
6.76056436218548e-08
6.81059804012726e-08
6.86325608454998e-08
6.9184756675922e-08
6.97618899974887e-08
7.0363232808651e-08
7.0988006340636e-08
7.16353802141188e-08
7.23044714042205e-08
7.29943430078635e-08
7.37040028095906e-08
7.44324016410985e-08
7.51784315265505e-08
7.59409236048552e-08
7.67186458276758e-08
7.75103004504362e-08
7.83145213593356e-08
7.91298713034637e-08
7.99548391219523e-08
8.07878370690139e-08
8.16271983443413e-08
8.24711749344237e-08
8.331793586529e-08
8.41655659620604e-08
8.50120652060326e-08
8.58553487741649e-08
8.66932478368641e-08
8.75235111774732e-08
8.83438076819066e-08
8.91517297315619e-08
8.99447975188253e-08
9.07204642930708e-08
9.14761225361461e-08
9.22091110598765e-08
9.29167230140088e-08
9.35962147908085e-08
9.42448158111514e-08
9.48597391745752e-08
9.54381931500726e-08
9.59773934736964e-08
9.64745764033545e-08
9.69270124624405e-08
9.73320207848104e-08
9.76869839560405e-08
9.79893632307408e-08
9.82367139931384e-08
9.84267013177353e-08
9.85571154773817e-08
9.8625887236902e-08
9.86311027637237e-08
9.85710179880077e-08
9.8444072258246e-08
9.82489011643743e-08
9.79843484336454e-08
9.76494768355911e-08
9.72435780532125e-08
9.6766181485939e-08
9.62170619502863e-08
9.55962462426211e-08
9.49040185284653e-08
9.41409245252368e-08
9.33077744505319e-08
9.24056447159547e-08
9.14358783557747e-08
9.04000841880534e-08
8.93001347115376e-08
8.8138162744795e-08
8.69165568169479e-08
8.56379553241933e-08
8.43052394734329e-08
8.29215250417973e-08
8.14901529858686e-08
8.0014678935762e-08
7.84988616092324e-08
7.6946650185071e-08
7.53621706883233e-08
7.37497114625709e-08
7.2113707830918e-08
7.04587260692047e-08
6.87894468270612e-08
6.71106481349149e-08
6.54271881313739e-08
6.37439876383186e-08
6.20660127014506e-08
6.03982572025707e-08
5.87457256379518e-08
5.71134161464354e-08
5.55063038617478e-08
5.3929324655226e-08
5.23873593269714e-08
5.08852182958202e-08
4.9427626832217e-08
4.80192108727802e-08
4.66644834496468e-08
4.53678317604116e-08
4.41335048957143e-08
4.29656022324971e-08
4.18680624932293e-08
4.08446534660608e-08
3.98989623779539e-08
3.9034386911366e-08
3.82541268536546e-08
3.75611763663533e-08
3.69583168588421e-08
3.64481104478621e-08
3.60328939805849e-08
3.5714773594432e-08
3.54956197820346e-08
3.53770629259266e-08
3.53604892663124e-08
3.54470372674953e-08
3.56375943539213e-08
3.59327939936784e-08
3.63330131136171e-08
3.68383698345445e-08
3.74487215170093e-08
3.81636631089342e-08
3.8982525787564e-08
3.99043758921234e-08
4.09280141513088e-08
4.20519752193546e-08
4.32745275419364e-08
4.45936735759385e-08
4.60071503860759e-08
4.75124306404564e-08
4.91067240304838e-08
5.07869791492864e-08
5.25498858745096e-08
5.43918783112405e-08
5.63091383559038e-08
5.82975999424409e-08
6.03529540300683e-08
6.24706543887816e-08
6.46459242349033e-08
6.68737637649138e-08
6.91489586321562e-08
7.14660894076834e-08
7.38195420629304e-08
7.62035195073291e-08
7.86120542075787e-08
8.10390219064733e-08
8.34781564485987e-08
8.59230657099562e-08
8.83672486213426e-08
9.080411327222e-08
9.32269960808228e-08
9.56291820131921e-08
9.80039258256551e-08
1.00344474292153e-07
1.02644089362123e-07
1.04896072178202e-07
1.07093787866199e-07
1.09230690992561e-07
1.11300351566671e-07
1.13296481446533e-07
1.15212960986056e-07
1.17043865741379e-07
1.18783493034225e-07
1.20426388153996e-07
1.21967369967019e-07
1.23401555690947e-07
1.24724384586491e-07
1.25931640319665e-07
1.27019471754092e-07
1.2798441194014e-07
1.28823395075104e-07
1.29533771224702e-07
1.30113318631643e-07
1.30560253494004e-07
1.30873237162719e-07
1.31051380765285e-07
1.31094247299597e-07
1.31001851259061e-07
1.30774655859415e-07
1.30413567948165e-07
1.299199306898e-07
1.29295514129535e-07
1.28542503742336e-07
1.27663487074445e-07
1.26661438586585e-07
1.25539702815526e-07
1.24301975984611e-07
1.229522862114e-07
1.21494972477773e-07
1.19934662540178e-07
1.18276249961861e-07
1.16524870443673e-07
1.14685877618068e-07
1.12764818457784e-07
1.10767408441782e-07
1.08699506618021e-07
1.06567090703395e-07
1.04376232361109e-07
1.0213307279113e-07
9.98437987595356e-08
9.75146191798515e-08
9.51517423461908e-08
9.27613539056681e-08
9.03495956477496e-08
8.79225451815587e-08
8.54861965673574e-08
8.30464419630835e-08
8.06090543397059e-08
7.81796713105793e-08
7.57637801107995e-08
7.33667037531395e-08
7.09935883772748e-08
6.86493917987848e-08
6.63388732549789e-08
6.40665843370517e-08
6.18368610917351e-08
5.9653817268524e-08
5.75213386801119e-08
5.54430786359955e-08
5.34224544056332e-08
5.14626446697385e-08
4.95665879242555e-08
4.77369818066418e-08
4.59762833145871e-08
4.4286709883334e-08
4.26702412822879e-08
4.11286222870996e-08
3.96633660799202e-08
3.82757583265715e-08
3.69668618741171e-08
3.57375220065861e-08
3.45883721922092e-08
3.35198402540107e-08
3.25321548974427e-08
3.16253525335155e-08
3.07992843427546e-08
3.00536235332892e-08
2.93878727543274e-08
2.88013716331631e-08
2.82933044089107e-08
2.78627076389595e-08
2.75084779549035e-08
2.72293798442721e-08
2.70240534335121e-08
2.68910222464698e-08
2.68287009106595e-08
2.68354027806299e-08
2.69093474443917e-08
2.70486680768521e-08
2.72514186053852e-08
2.75155806578644e-08
2.78390702719444e-08
2.82197443543642e-08
2.86554068885147e-08
2.91438148957877e-08
2.96826841602397e-08
3.02696947266448e-08
3.09024961796543e-08
3.15787127076964e-08
3.22959479508806e-08
3.30517896293514e-08
3.38438139493504e-08
3.4669589789811e-08
3.5526682681228e-08
3.64126585974467e-08
3.73250875868127e-08
3.82615472708837e-08
3.92196262380925e-08
4.01969273588018e-08
4.11910710482874e-08
4.21996985043628e-08
4.32204749450937e-08
4.42510928693228e-08
4.52892753598001e-08
4.63327794465531e-08
4.73793995464855e-08
4.84269709932009e-08
4.94733736679794e-08
5.05165357381936e-08
5.15544375027932e-08
5.25851153358345e-08
5.3606665709261e-08
5.46172492666743e-08
5.56150949118965e-08
5.65985038704845e-08
5.75658536795473e-08
5.85156020611398e-08
5.94462906359232e-08
6.03565484349543e-08
6.12450951673839e-08
6.21107442007626e-08
6.29524052097495e-08
6.37690864498178e-08
6.45598966161586e-08
6.53240462543432e-08
6.60608486968698e-08
6.6769720505718e-08
6.74501814030083e-08
6.81018536696708e-08
6.87244609887185e-08
6.93178267101174e-08
6.98818715221002e-08
7.04166105293443e-08
7.09221497582665e-08
7.13986821286803e-08
7.18464829452918e-08
7.22659049706589e-08
7.26573731448003e-08
7.30213790189931e-08
7.33584749749506e-08
7.36692683050702e-08
7.39544152324193e-08
7.42146149488625e-08
7.44506037459193e-08
7.46631493061028e-08
7.48530452137855e-08
7.5021105735893e-08
7.51681609157682e-08
7.52950520193109e-08
7.54026273704954e-08
7.54917386121443e-08
7.55632374255916e-08
7.56179727382941e-08
7.56567884410496e-08
7.56805216264728e-08
7.56900013486267e-08
7.56860478916265e-08
7.56694725242872e-08
7.56410777096408e-08
7.5601657731927e-08
7.55519996974934e-08
7.54928848586859e-08
7.54250902028122e-08
7.53493902448854e-08
7.5266558964967e-08
7.51773718376583e-08
7.50826079102488e-08
7.49830518946028e-08
7.48794962436655e-08
7.47727431846558e-08
7.46636066770391e-08
7.45529142553229e-08
7.44415087073773e-08
7.43302495323517e-08
7.42200141220297e-08
7.41116986164935e-08
7.40062183959343e-08
7.39045081796263e-08
7.38075217060437e-08
7.37162309644175e-08
7.36316249415558e-08
7.35547078444248e-08
7.34864967634386e-08
7.34280187543791e-08
7.33803073349638e-08
7.33443984103359e-08
7.33213256569799e-08
7.33121154064544e-08
7.33177810796269e-08
7.3339317228274e-08
7.33776932423029e-08
7.34338467766317e-08
7.35086769437772e-08
7.36030373107457e-08
7.37177287365651e-08
7.38534920922545e-08
7.4011000917142e-08
7.41908540798772e-08
7.43935685237184e-08
7.46195721801452e-08
7.48691971328907e-08
7.51426731089253e-08
7.54401213658006e-08
7.57615490365074e-08
7.61068439842475e-08
7.64757702121187e-08
7.68679638683717e-08
7.72829298866791e-08
7.77200393013713e-08
7.81785272779598e-08
7.86574918978647e-08
7.91558937320285e-08
7.96725562307798e-08
8.02061669474951e-08
8.07552796029857e-08
8.13183169885593e-08
8.18935747002049e-08
8.24792256935429e-08
8.30733256461857e-08
8.36738191091511e-08
8.42785464235447e-08
8.48852513761938e-08
8.54915895695529e-08
8.60951374844813e-08
8.66934022152685e-08
8.72838318527195e-08
8.78638264849304e-08
8.84307497793151e-08
8.89819411043763e-08
8.95147281447609e-08
9.00264399573539e-08
9.0514420409722e-08
9.0976041936734e-08
9.14087195486589e-08
9.1809925024259e-08
9.21772012221069e-08
9.25081764393044e-08
9.28005787393766e-08
9.30522501645671e-08
9.32611607473148e-08
9.34254222449732e-08
9.35433015406843e-08
9.36132336758757e-08
9.36338344966834e-08
9.36039129012944e-08
9.3522482668426e-08
9.33887738337577e-08
9.32022435652364e-08
9.29625864721869e-08
9.26697442684501e-08
9.23239146964887e-08
9.19255596070419e-08
9.14754120783299e-08
9.0974482452836e-08
9.04240631714048e-08
8.98257322955509e-08
8.91813556295689e-08
8.8493087382313e-08
8.77633693398829e-08
8.69949285488614e-08
8.6190773529876e-08
8.53541890506499e-08
8.44887294875635e-08
8.3598210799544e-08
8.26867011335259e-08
8.17585100810463e-08
8.08181766122648e-08
7.98704557268817e-08
7.89203038807463e-08
7.79728632704344e-08
7.70334450806434e-08
7.61075118147427e-08
7.52006588341857e-08
7.43185952293872e-08
7.34671241369e-08
7.26521226077617e-08
7.18795211200851e-08
7.11552828152977e-08
7.04853825231549e-08
6.9875785628325e-08
6.93324268237297e-08
6.88611887941502e-08
6.84678808766297e-08
6.81582177493083e-08
6.79377982049168e-08
6.78120840668678e-08
6.77863793031274e-08
6.78658093863108e-08
6.80553009399244e-08
6.83595617018457e-08
6.878306082671e-08
6.93300095384699e-08
7.00043421341806e-08
7.08096973332243e-08
7.17493999667076e-08
7.28264430119588e-08
7.40434699950029e-08
7.54027578036937e-08
7.69061999690058e-08
7.85552904785866e-08
8.03511081878005e-08
8.22943018954512e-08
8.43850761582092e-08
8.66231779289778e-08
8.90078841179605e-08
9.15379901900103e-08
9.42117999262212e-08
9.70271164876212e-08
9.99812349207431e-08
1.03070936239691e-07
1.06292483211575e-07
1.09641617965025e-07
1.13113561534012e-07
1.16703015439093e-07
1.20404165395791e-07
1.24210687229132e-07
1.28115755069225e-07
1.32112051906225e-07
1.36191782589339e-07
1.40346689356166e-07
1.4456806997236e-07
1.48846798551057e-07
1.53173349112598e-07
1.57537821939178e-07
1.61929972772333e-07
1.66339244888175e-07
1.70754804064022e-07
1.75165576422032e-07
1.79560289103665e-07
1.8392751369594e-07
1.88255712298059e-07
1.92533286085455e-07
1.96748626196469e-07
2.00890166732244e-07
2.04946439622286e-07
2.08906131067693e-07
2.1275813923318e-07
2.16491632818336e-07
2.2009611009829e-07
2.23561457985442e-07
2.26878010628857e-07
2.30036607038342e-07
2.330286471998e-07
2.35846146144139e-07
2.38481785449968e-07
2.40928961699006e-07
2.43181831451309e-07
2.45235352348646e-07
2.47085319977977e-07
2.48728400138331e-07
2.50162156176491e-07
2.51385071118385e-07
2.5239656443653e-07
2.53197003440738e-07
2.53787709416779e-07
2.54170958726614e-07
2.54349979112819e-07
2.54328941434691e-07
2.54112947026255e-07
2.53708010822227e-07
2.5312104035555e-07
2.5235981069547e-07
2.51432935371126e-07
2.50349833312823e-07
2.4912069184445e-07
2.47756425781947e-07
2.46268632737788e-07
2.4466954479432e-07
2.4297197677605e-07
2.41189271409977e-07
2.39335241705718e-07
2.37424110908212e-07
2.35470450372587e-07
2.33489115687111e-07
2.31495181336903e-07
2.29503874172836e-07
2.27530505939786e-07
2.25590405129632e-07
2.23698848448096e-07
2.21870992205316e-07
2.20121803948804e-07
2.1846599465529e-07
2.16917951788998e-07
2.1549167352159e-07
2.1420070439895e-07
2.13058072739143e-07
2.12076230051929e-07
2.11266992771584e-07
2.10641486583591e-07
2.10210093607281e-07
2.099824026824e-07
2.09967163002522e-07
2.10172241336651e-07
2.10604583072668e-07
2.11270177296835e-07
2.121740260933e-07
2.13320118211925e-07
2.14711407216852e-07
2.163497941959e-07
2.18236115084683e-07
2.20370132640603e-07
2.22750533087328e-07
2.25374927435287e-07
2.28239857466189e-07
2.31340806350583e-07
2.34672213847068e-07
2.38227496011285e-07
2.41999069326943e-07
2.45978379165223e-07
2.5015593248248e-07
2.54521334671613e-07
2.59063330479975e-07
2.63769848893199e-07
2.68628051866611e-07
2.73624386773483e-07
2.78744642434692e-07
2.83974008592058e-07
2.89297138680482e-07
2.94698215738248e-07
3.00161021273885e-07
3.05669006888859e-07
3.11205368442431e-07
3.16753122535583e-07
3.22295185077228e-07
3.27814451669928e-07
3.33293879510464e-07
3.38716570446782e-07
3.44065854773329e-07
3.49325375288296e-07
3.54479171088319e-07
3.59511760550758e-07
3.64408222956921e-07
3.69154278233592e-07
3.73736364315456e-07
3.78141711641358e-07
3.82358414296312e-07
3.86375497319368e-07
3.90182979730717e-07
3.93771932883962e-07
3.97134533796629e-07
4.00264113129555e-07
4.03155197466706e-07
4.05803545502306e-07
4.08206177687672e-07
4.10361398840667e-07
4.12268813195841e-07
4.13929331398143e-07
4.15345169031478e-07
4.16519836410884e-07
4.17458119512434e-07
4.18166052025299e-07
4.18650878572009e-07
4.18921009181776e-07
4.18985965159795e-07
4.1885631659618e-07
4.18543611895955e-07
4.1806029986592e-07
4.17419645046141e-07
4.16635637108025e-07
4.15722895244328e-07
4.14696568538386e-07
4.13572233317112e-07
4.12365788470208e-07
4.11093349668216e-07
4.09771143347121e-07
4.08415401256193e-07
4.07042256293927e-07
4.05667640290152e-07
4.04307184340936e-07
4.02976122276243e-07
4.01689197835212e-07
4.00460576124272e-07
3.99303759923477e-07
3.98231511381317e-07
3.97255779598279e-07
3.96387634547048e-07
3.95637207720013e-07
3.95013639844324e-07
3.94525035965299e-07
3.94178428160955e-07
3.93979746100282e-07
3.93933795591835e-07
3.94044245193748e-07
3.94313620879593e-07
3.94743308680497e-07
3.9533356515558e-07
3.96083535484786e-07
3.96991278933665e-07
3.98053801403692e-07
3.99267094744781e-07
4.00626182463652e-07
4.02125171415645e-07
4.03757309026075e-07
4.05515045558824e-07
4.07390100941865e-07
4.09373535671572e-07
4.11455825339848e-07
4.1362693834369e-07
4.15876416332063e-07
4.18193456919472e-07
4.20566998165591e-07
4.22985804303006e-07
4.25438552192679e-07
4.27913917987251e-07
4.30400663475315e-07
4.32887721561101e-07
4.35364280299001e-07
4.37819864847423e-07
4.40244416638728e-07
4.42628369005623e-07
4.44962718492635e-07
4.47239091136451e-07
4.4944980311296e-07
4.51587915283804e-07
4.53647281288937e-07
4.55622588909252e-07
4.5750939448366e-07
4.59304150235037e-07
4.61004224446687e-07
4.62607914523016e-07
4.64114453046456e-07
4.65524006993026e-07
4.66837670287398e-07
4.68057449873581e-07
4.69186245464282e-07
4.702278231254e-07
4.7118678287365e-07
4.720685205406e-07
4.72879184288716e-07
4.73625626315855e-07
4.74315350397663e-07
4.74956455959847e-07
4.7555757935077e-07
4.76127832927336e-07
4.76676742501209e-07
4.77214183634929e-07
4.77750317231211e-07
4.78295524814461e-07
4.78860343854361e-07
4.79455403434733e-07
4.8009136053801e-07
4.80778837192075e-07
4.81528358700404e-07
4.82350293149943e-07
4.83254792372989e-07
4.84251734522812e-07
4.85350668387088e-07
4.86560759500183e-07
4.87890738044553e-07
4.89348848487423e-07
4.90942800903884e-07
4.92679723983821e-07
4.94566119776985e-07
4.96607820273982e-07
4.98809945955015e-07
5.01176866485884e-07
5.03712163810179e-07
5.06418597952993e-07
5.09298075880775e-07
5.123516237472e-07
5.15579362818348e-07
5.18980489335778e-07
5.22553258552379e-07
5.26294973164135e-07
5.30201976358276e-07
5.34269649695095e-07
5.3849241602481e-07
5.42863747608707e-07
5.47376179568428e-07
5.52021328730007e-07
5.56789917868674e-07
5.61671805316703e-07
5.66656019880237e-07
5.71730801003698e-07
5.76883644094115e-07
5.82101350865665e-07
5.8737008450128e-07
5.92675429367268e-07
5.9800245496104e-07
6.03335783717025e-07
6.08659662236168e-07
6.13958035440674e-07
6.19214623105667e-07
6.24412998214647e-07
6.29536666639415e-07
6.34569147727854e-07
6.39494055442579e-07
6.44295179705067e-07
6.48956567584917e-07
6.53462603966372e-07
6.57798091329323e-07
6.61948328276473e-07
6.65899186400815e-07
6.69637185016395e-07
6.73149563183341e-07
6.76424348369693e-07
6.79450421048261e-07
6.82217574572199e-07
6.847165698192e-07
6.86939184291089e-07
6.88878255524947e-07
6.90527718775922e-07
6.91882638991913e-07
6.92939237145977e-07
6.93694911021331e-07
6.94148250542359e-07
6.94299047722963e-07
6.94148301283072e-07
6.93698215964824e-07
6.92952196543179e-07
6.91914836468935e-07
6.90591901031688e-07
6.8899030491875e-07
6.8711808409043e-07
6.84984361988373e-07
6.82599310218948e-07
6.79974103975632e-07
6.77120872560572e-07
6.74052645429229e-07
6.70783294211181e-07
6.67327471157179e-07
6.63700544449719e-07
6.59918530830064e-07
6.55998026060151e-07
6.51956133831805e-07
6.47810393806122e-07
6.43578709470005e-07
6.39279276430903e-07
6.34930511660984e-07
6.30550984077512e-07
6.26159346726181e-07
6.21774270727917e-07
6.17414381057504e-07
6.13098194141665e-07
6.08844057196529e-07
6.04670089175759e-07
6.00594123184119e-07
5.96633650247709e-07
5.92805764424643e-07
5.89127109347768e-07
5.85613826358733e-07
5.82281504405985e-07
5.79145131868561e-07
5.76219050462037e-07
5.73516911385471e-07
5.71051633872963e-07
5.6883536632664e-07
5.66879450235897e-07
5.65194387118048e-07
5.63789808726348e-07
5.62674450756027e-07
5.61856130247654e-07
5.61341726849465e-07
5.61137168054725e-07
5.61247418472086e-07
5.61676473122931e-07
5.62427354710996e-07
5.63502114795579e-07
5.64901838817773e-07
5.66626654954183e-07
5.68675746776288e-07
5.71047369662514e-07
5.73738870852329e-07
5.76746712972168e-07
5.80066500824924e-07
5.83693011222337e-07
5.87620225639119e-07
5.91841365466354e-07
5.96348929642356e-07
6.01134734459048e-07
6.06189955390557e-07
6.11505170847642e-07
6.17070407784269e-07
6.2287518904743e-07
6.28908582280671e-07
6.35159250095338e-07
6.41615501135112e-07
6.48265341591729e-07
6.55096526684505e-07
6.62096611592869e-07
6.69253001339244e-07
6.76552999170582e-07
6.83983853074086e-07
6.91532800160262e-07
6.99187108734636e-07
7.06934117964055e-07
7.14761275142188e-07
7.22656170665425e-07
7.30606570909522e-07
7.38600449221336e-07
7.46626015219533e-07
7.54671742566329e-07
7.62726395342574e-07
7.70779053114558e-07
7.78819134704319e-07
7.86836420567259e-07
7.94821073560995e-07
8.02763657784223e-07
8.10655155095776e-07
8.18486978906147e-07
8.26250984872565e-07
8.33939478216379e-07
8.41545217493618e-07
8.49061414758811e-07
8.56481732155221e-07
8.63800275048424e-07
8.71011581900156e-07
8.7811061113644e-07
8.85092725278208e-07
8.91953672593282e-07
8.98689566542568e-07
9.05296863352013e-07
9.11772338122898e-07
9.18113059958461e-07
9.24316366610969e-07
9.30379839135753e-07
9.36301276987919e-07
9.42078673934079e-07
9.4771019509313e-07
9.53194155369102e-07
9.58528999493464e-07
9.63713283869745e-07
9.68745660429733e-07
9.73624862750644e-07
9.78349694696297e-07
9.829190218034e-07
9.8733176555358e-07
9.91586900585544e-07
9.95683454833674e-07
9.99620512546649e-07
1.00339722014065e-06
1.00701279484122e-06
1.01046653602901e-06
1.01375783913419e-06
1.01688621186207e-06
1.0198512925035e-06
1.02265287006812e-06
1.02529090593792e-06
1.02776555665936e-06
1.03007719739396e-06
1.03222644546269e-06
1.03421418336429e-06
1.03604158063677e-06
1.03771011399124e-06
1.03922158529288e-06
1.04057813714668e-06
1.04178226597975e-06
1.04283683255515e-06
1.04374506984321e-06
1.04451058816667e-06
1.04513737752435e-06
1.04562980695816e-06
1.0459926207826e-06
1.04623093152142e-06
1.04635020955988e-06
1.04635626980129e-06
1.04625525590434e-06
1.04605362285783e-06
1.04575811869613e-06
1.04537576612473e-06
1.0449138447636e-06
1.04437987462654e-06
1.04378160132234e-06
1.04312698328934e-06
1.0424241811762e-06
1.04168154927411e-06
1.0409076286969e-06
1.04011114180566e-06
1.03930098719364e-06
1.03848623439152e-06
1.03767611732357e-06
1.03688002545362e-06
1.03610749154383e-06
1.03536817503866e-06
1.03467184025813e-06
1.03402832876113e-06
1.03344752536938e-06
1.0329393174597e-06
1.03251354731386e-06
1.0321799575782e-06
1.03194813016086e-06
1.03182741912398e-06
1.03182687832553e-06
1.03195518476887e-06
1.03222055881406e-06
1.03263068254313e-06
1.03319261763363e-06
1.03391272409406e-06
1.03479658115787e-06
1.0358489115179e-06
1.03707350992694e-06
1.03847317702845e-06
1.04004965913783e-06
1.04180359458997e-06
1.04373446720818e-06
1.04584056741769e-06
1.0481189614826e-06
1.05056546926812e-06
1.05317465082866e-06
1.05593980201376e-06
1.05885295916899e-06
1.0619049128895e-06
1.0650852306846e-06
1.06838228835773e-06
1.07178330988992e-06
1.07527441559287e-06
1.07884067824016e-06
1.08246618679709e-06
1.0861341172713e-06
1.0898268100992e-06
1.09352585336512e-06
1.09721217105536e-06
1.10086611553495e-06
1.10446756351914e-06
1.10799601493983e-06
1.11143069419744e-06
1.11475065332043e-06
1.11793487657652e-06
1.12096238613724e-06
1.1238123484733e-06
1.12646418120946e-06
1.12889766017627e-06
1.13109302637908e-06
1.13303109256787e-06
1.13469334901232e-06
1.13606206794463e-06
1.13712040593687e-06
1.13785250326427e-06
1.13824357911648e-06
1.13828002141645e-06
1.13794947004889e-06
1.13724089250283e-06
1.13614465121734e-06
1.13465256217363e-06
1.13275794444843e-06
1.13045566057572e-06
1.12774214772132e-06
1.12461543988158e-06
1.12107518155605e-06
1.11712263357059e-06
1.11276067189129e-06
1.10799378033274e-06
1.10282803802721e-06
1.09727110241086e-06
1.09133218832976e-06
1.08502204368503e-06
1.0783529218312e-06
1.07133855073526e-06
1.06399409873876e-06
1.05633613668941e-06
1.04838259624271e-06
1.04015272425092e-06
1.03166703330186e-06
1.02294724859002e-06
1.01401625135779e-06
1.00489801911755e-06
9.9561756276753e-07
9.86200860577307e-07
9.76674788876752e-07
9.67067049170163e-07
9.57406091362704e-07
9.47721032861233e-07
9.38041573476208e-07
9.28397906237159e-07
9.18820624379199e-07
9.09340624838178e-07
8.99989008610441e-07
8.90796978316807e-07
8.81795733314121e-07
8.73016362768738e-07
8.64489737233791e-07
8.56246399394731e-07
8.48316454714599e-07
8.40729462722144e-07
8.3351432967773e-07
8.2669920334965e-07
8.20311370628796e-07
8.14377158680591e-07
8.08921840278205e-07
8.03969543899058e-07
7.9954316910763e-07
7.95664307687201e-07
7.92353170922598e-07
7.89628523386614e-07
7.87507623547372e-07
7.86006171485053e-07
7.85138263975801e-07
7.84916357155303e-07
7.85351236896228e-07
7.8645199691914e-07
7.88226024527116e-07
7.90678993740375e-07
7.93814865532131e-07
7.97635894839488e-07
8.02142644030303e-07
8.07334002517509e-07
8.13207212199052e-07
8.19757898357717e-07
8.2698010560324e-07
8.34866338425297e-07
8.43407605990238e-07
8.52593470947906e-07
8.62412102158695e-07
8.72850331343629e-07
8.83893713681671e-07
8.95526592345864e-07
9.07732166904153e-07
9.20492565421008e-07
9.33788919990848e-07
9.47601445331655e-07
9.61909519984143e-07
9.76691769602385e-07
9.91926151778924e-07
1.00759004180836e-06
1.02366031873509e-06
1.04011345093109e-06
1.05692558031004e-06
1.07407260412727e-06
1.09153025316548e-06
1.10927416499221e-06
1.12727995095823e-06
1.1455232557639e-06
1.1639798087677e-06
1.18262546664785e-06
1.20143624739225e-06
1.22038835578708e-06
1.23945820063541e-06
1.25862240398309e-06
1.27785780274568e-06
1.29714144330636e-06
1.31645056981159e-06
1.33576260696692e-06
1.35505513813676e-06
1.37430587951731e-06
1.39349265109615e-06
1.41259334502239e-06
1.43158589189385e-06
1.45044822537249e-06
1.46915824551493e-06
1.48769378125542e-06
1.50603255255168e-06
1.52415213273063e-06
1.54202991153244e-06
1.5596430593172e-06
1.57696849298607e-06
1.59398284441982e-06
1.61066243255464e-06
1.62698324043461e-06
1.64292089862091e-06
1.65845067624656e-06
1.67354748087641e-06
1.68818586821341e-06
1.70234006256968e-06
1.7159839888632e-06
1.72909131668723e-06
1.74163551674284e-06
1.75358992965663e-06
1.76492784694733e-06
1.775622603657e-06
1.78564768193534e-06
1.79497682467576e-06
1.80358415814837e-06
1.81144432244473e-06
1.81853260843679e-06
1.82482509986864e-06
1.83029881913242e-06
1.8349318752018e-06
1.83870361209798e-06
1.84159475620375e-06
1.84358756081657e-06
1.8446659465833e-06
1.84481563683166e-06
1.84402428718826e-06
1.84228160913953e-06
1.83957948729756e-06
1.83591209011628e-06
1.83127597375448e-06
1.8256701787573e-06
1.81909631920397e-06
1.81155866390225e-06
1.80306420908961e-06
1.79362274194942e-06
1.78324689407334e-06
1.77195218380763e-06
1.75975704625227e-06
1.74668284963452e-06
1.73275389693469e-06
1.71799741196462e-06
1.70244350943005e-06
1.68612514872091e-06
1.66907807131029e-06
1.65134072185366e-06
1.63295415343226e-06
1.61396191779129e-06
1.59440994172016e-06
1.57434639081281e-06
1.55382152175082e-06
1.53288752406241e-06
1.51159835211436e-06
1.49000954793479e-06
1.46817805535603e-06
1.44616202592317e-06
1.42402061704978e-06
1.40181378301283e-06
1.37960205953414e-06
1.35744634286024e-06
1.3354076643959e-06
1.31354696205846e-06
1.29192484959412e-06
1.27060138513192e-06
1.24963584022862e-06
1.22908647056781e-06
1.20901028933739e-06
1.18946284417593e-06
1.17049799851299e-06
1.15216771814559e-06
1.13452186394944e-06
1.11760799165881e-06
1.10147115963974e-06
1.08615374554577e-06
1.07169527271646e-06
1.05813224717456e-06
1.04549800609913e-06
1.03382257869579e-06
1.02313256043514e-06
1.01345100166052e-06
1.00479731154215e-06
9.97187178266328e-07
9.90632506213729e-07
9.85141370720169e-07
9.8071799083398e-07
9.77362720292588e-07
9.75072056753941e-07
9.73838669151049e-07
9.73651442884635e-07
9.74495542410242e-07
9.76352490599838e-07
9.79200264071383e-07
9.83013403500524e-07
9.87763137769016e-07
9.93417520662811e-07
9.99941578708389e-07
1.00729746865709e-06
1.01544464315267e-06
1.02434002328839e-06
1.03393817705072e-06
1.04419150296579e-06
1.05505041851292e-06
1.06646355300929e-06
1.07837794474984e-06
1.09073924228018e-06
1.10349190979578e-06
1.11657943673829e-06
1.12994455163644e-06
1.14352944011732e-06
1.15727596683645e-06
1.17112590089656e-06
1.18502114418222e-06
1.19890396195153e-06
1.21271721499075e-06
1.2264045926208e-06
1.23991084581103e-06
1.25318201959418e-06
1.26616568391003e-06
1.27881116195901e-06
1.2910697551288e-06
1.3028949635584e-06
1.31424270141323e-06
1.32507150595197e-06
1.33534273946783e-06
1.34502078318547e-06
1.35407322218834e-06
1.36247102042606e-06
1.37018868479209e-06
1.37720441715822e-06
1.38350025311306e-06
1.38906218598374e-06
1.39388027452487e-06
1.39794873243473e-06
1.40126599762367e-06
1.40383477895324e-06
1.40566207806299e-06
1.40675918399846e-06
1.40714163870779e-06
1.40682917205766e-06
1.40584560571838e-06
1.40421872595433e-06
1.4019801259254e-06
1.3991650184902e-06
1.39581202068406e-06
1.39196291109806e-06
1.38766236145181e-06
1.38295764385873e-06
1.37789831565669e-06
1.37253588414436e-06
1.36692345399928e-06
1.36111536044829e-06
1.35516679137631e-06
1.34913340154074e-06
1.34307092200516e-06
1.33703476788939e-06
1.33107964754752e-06
1.32525917626834e-06
1.31962549750346e-06
1.31422891448949e-06
1.30911753499469e-06
1.30433693181251e-06
1.29992982152765e-06
1.29593576395499e-06
1.29239088448076e-06
1.28932762132707e-06
1.28677449954061e-06
1.28475593330019e-06
1.28329205796478e-06
1.28239859314074e-06
1.28208673790616e-06
1.28236309915468e-06
1.28322965380262e-06
1.28468374535732e-06
1.28671811509628e-06
1.28932096786235e-06
1.2924760722361e-06
1.29616289459461e-06
1.30035676630532e-06
1.30502908303497e-06
1.31014753488291e-06
1.31567636577738e-06
1.32157666030627e-06
1.32780665588488e-06
1.33432207789439e-06
1.34107649516445e-06
1.34802169293885e-06
1.35510806026345e-06
1.36228498856137e-06
1.36950127798603e-06
1.37670554795968e-06
1.3838466481432e-06
1.39087406600001e-06
1.39773832713124e-06
1.4043913846136e-06
1.41078699358336e-06
1.41688106727607e-06
1.42263201074933e-06
1.4280010286971e-06
1.43295240412501e-06
1.43745374509704e-06
1.44147619714644e-06
1.44499461923309e-06
1.44798772144547e-06
1.45043816315852e-06
1.45233261111891e-06
1.4536617578033e-06
1.45442030115882e-06
1.45460688733625e-06
1.45422401827945e-06
1.45327792618062e-06
1.4517784169859e-06
1.44973868538558e-06
1.44717510402737e-06
1.44410699001099e-06
1.44055635200611e-06
1.43654762152032e-06
1.43210737188383e-06
1.42726402841424e-06
1.42204757302525e-06
1.41648924630427e-06
1.41062124984111e-06
1.4044764513501e-06
1.39808809488034e-06
1.39148951814653e-06
1.38471387874604e-06
1.37779389078272e-06
1.37076157322233e-06
1.36364801117484e-06
1.35648313121874e-06
1.34929549181753e-06
1.34211208979507e-06
1.33495818373497e-06
1.32785713507693e-06
1.32083026761363e-06
1.31389674602729e-06
1.30707347402332e-06
1.30037501251752e-06
1.29381351823025e-06
1.28739870293981e-06
1.28113781354687e-06
1.27503563299573e-06
1.26909450197868e-06
1.26331436120911e-06
1.25769281388807e-06
1.25222520782822e-06
1.24690473654985e-06
1.24172255852725e-06
1.23666793362427e-06
1.23172837560035e-06
1.22688981938363e-06
1.22213680160996e-06
1.2174526527478e-06
1.2128196990027e-06
1.20821947211959e-06
1.20363292513284e-06
1.19904065200931e-06
1.1944231089894e-06
1.18976083530633e-06
1.18503467091408e-06
1.18022596889298e-06
1.17531680028522e-06
1.170290149173e-06
1.16513009582816e-06
1.15982198579186e-06
1.15435258289671e-06
1.14871020458847e-06
1.14288483839269e-06
1.13686823886097e-06
1.130654004688e-06
1.12423763587673e-06
1.11761657092925e-06
1.11079020418475e-06
1.10375988368845e-06
1.09652889034587e-06
1.08910239952583e-06
1.08148742663758e-06
1.07369275844847e-06
1.0657288719989e-06
1.05760784294411e-06
1.04934324507255e-06
1.04095004265554e-06
1.0324444771718e-06
1.02384394981355e-06
1.01516690102984e-06
1.00643268821852e-06
9.97661462559571e-07
9.88874045916948e-07
9.80091808745183e-07
9.71336549999681e-07
9.62630380097769e-07
9.53995607946582e-07
9.45454632931889e-07
9.37029842580184e-07
9.2874351640471e-07
9.20617736253492e-07
9.12674303312209e-07
9.04934661784253e-07
8.97419829167132e-07
8.90150332952984e-07
8.83146153496613e-07
8.7642667272263e-07
8.70010628279404e-07
8.63916072674739e-07
8.58160336844322e-07
8.52759997538518e-07
8.47730847906436e-07
8.43087870725401e-07
8.38845213847069e-07
8.3501616756142e-07
8.3161314367034e-07
8.28647656094846e-07
8.26130302830372e-07
8.24070749043033e-07
8.2247771108193e-07
8.21358941169511e-07
8.20721212528837e-07
8.20570304727572e-07
8.20910989074279e-07
8.21747013987406e-07
8.23081090357231e-07
8.24914877024256e-07
8.27248966587263e-07
8.30082871801757e-07
8.33415012815109e-07
8.37242705428611e-07
8.41562150538111e-07
8.4636842494174e-07
8.51655473826033e-07
8.57416105400983e-07
8.63641988275786e-07
8.70323652205492e-07
8.77450492804765e-07
8.85010780759528e-07
8.92991675998456e-07
9.01379247213788e-07
9.1015849704043e-07
9.19313393125103e-07
9.28826905260268e-07
9.38681048722778e-07
9.48856933923444e-07
9.59334822408314e-07
9.70094189139041e-07
9.81113790833808e-07
9.92371740001166e-07
1.00384558417014e-06
1.01551238973126e-06
1.02734882977455e-06
1.03933127533674e-06
1.05143588950721e-06
1.06363872384615e-06
1.07591581653643e-06
1.08824329165503e-06
1.10059745894647e-06
1.11295491353165e-06
1.12529263509393e-06
1.13758808621739e-06
1.14981930965304e-06
1.16196502432422e-06
1.17400471986362e-06
1.18591874942605e-06
1.19768842044154e-06
1.20929608285153e-06
1.22072521421764e-06
1.23196050093288e-06
1.2429879146281e-06
1.25379478280249e-06
1.26436985278543e-06
1.27470334837852e-06
1.28478701884997e-06
1.29461418022792e-06
1.30417974897981e-06
1.31348026818094e-06
1.32251392623983e-06
1.3312805682164e-06
1.33978169975047e-06
1.34802048359967e-06
1.35600172876705e-06
1.36373187217412e-06
1.37121895279438e-06
1.37847257811656e-06
1.38550388278412e-06
1.39232547928486e-06
1.39895140064455e-06
1.40539703518669e-06
1.41167905350766e-06
1.41781532785243e-06
1.42382484408304e-06
1.42972760645366e-06
1.4355445354628e-06
1.44129735914055e-06
1.44700849824369e-06
1.45270094597198e-06
1.45839814295757e-06
1.4641238483732e-06
1.46990200803335e-06
1.47575662036541e-06
1.48171160116939e-06
1.48779064818466e-06
1.49401710659269e-06
1.50041383663985e-06
1.50700308452795e-06
1.51380635759047e-06
1.52084430456748e-06
1.52813660154758e-06
1.53570184390906e-06
1.54355744441088e-06
1.5517195374897e-06
1.56020288982507e-06
1.56902081731006e-06
1.57818510863918e-06
1.58770595572707e-06
1.59759189108794e-06
1.60784973219263e-06
1.61848453273099e-06
1.62949954062855e-06
1.6408961625427e-06
1.6526739343721e-06
1.66483049709312e-06
1.67736157706816e-06
1.69026096994878e-06
1.70352052749294e-06
1.71713014701785e-06
1.73107776370098e-06
1.74534934635571e-06
1.75992889753889e-06
1.77479845892654e-06
1.78993812294467e-06
1.80532605174889e-06
1.82093850477082e-06
1.83674987608803e-06
1.85273274277073e-06
1.86885792513331e-06
1.88509455952896e-06
1.90141018401483e-06
1.91777083691119e-06
1.93414116800527e-06
1.95048456191808e-06
1.96676327294503e-06
1.98293857047626e-06
1.99897089390118e-06
2.01482001572474e-06
2.03044521148846e-06
2.04580543501106e-06
2.06085949744196e-06
2.07556624862793e-06
2.08988475929018e-06
2.10377450251288e-06
2.1171955331439e-06
2.13010866397966e-06
2.14247563800445e-06
2.15425929632905e-06
2.16542374167558e-06
2.17593449724451e-06
2.18575866064432e-06
2.19486505236792e-06
2.20322435811954e-06
2.21080926415457e-06
2.21759458471175e-06
2.22355738061097e-06
2.22867706813634e-06
2.23293551735737e-06
2.23631713902128e-06
2.23880895913693e-06
2.24040068049575e-06
2.24108473069946e-06
2.2408562966917e-06
2.23971334613227e-06
2.23765663608288e-06
2.23468970941913e-06
2.23081887928189e-06
2.22605320185867e-06
2.22040443790149e-06
2.21388700362141e-06
2.206517911847e-06
2.19831670446266e-06
2.18930537709931e-06
2.17950829691386e-06
2.1689521141897e-06
2.15766566847279e-06
2.14567988997633e-06
2.13302769694389e-06
2.11974388950557e-06
2.10586504034048e-06
2.09142938228082e-06
2.0764766929372e-06
2.06104817647766e-06
2.04518634275522e-06
2.02893488395899e-06
2.01233854887592e-06
1.99544301481048e-06
1.97829475732489e-06
1.96094091823569e-06
1.94342917262228e-06
1.92580759582116e-06
1.90812453141973e-06
1.89042846115002e-06
1.87276787738396e-06
1.85519115869475e-06
1.8377464487108e-06
1.82048153828761e-06
1.80344375090308e-06
1.78667983117029e-06
1.77023583645712e-06
1.75415703175412e-06
1.73848778805127e-06
1.7232714844966e-06
1.70855041452229e-06
1.69436569601813e-06
1.68075718558565e-06
1.66776339691781e-06
1.65542142335558e-06
1.64376686461983e-06
1.63283375762924e-06
1.62265451126382e-06
1.61325984494596e-06
1.60467873093229e-06
1.59693834019132e-06
1.59006399169424e-06
1.58407910490042e-06
1.57900515517709e-06
1.57486163186065e-06
1.57166599869127e-06
1.56943365646544e-06
1.56817790789374e-06
1.5679099247025e-06
1.56863871691965e-06
1.57037110410402e-06
1.57311168815603e-06
1.57686282739156e-06
1.58162461177789e-06
1.58739483952828e-06
1.59416899550181e-06
1.60194023198106e-06
1.61069935241807e-06
1.6204347987395e-06
1.6311326428706e-06
1.64277658328189e-06
1.65534794750504e-06
1.66882570160854e-06
1.68318646753604e-06
1.69840454905309e-06
1.71445196692447e-06
1.73129850390936e-06
1.74891176017846e-06
1.76725721973501e-06
1.78629832829593e-06
1.8059965828722e-06
1.82631163303561e-06
1.84720139362869e-06
1.86862216850328e-06
1.89052878477583e-06
1.91287473705509e-06
1.93561234108906e-06
1.95869289622808e-06
1.98206685595051e-06
2.0056840054375e-06
2.02949364486562e-06
2.05344477679616e-06
2.07748629585551e-06
2.10156717886021e-06
2.1256366736251e-06
2.14964448486053e-06
2.17354095576479e-06
2.19727724409335e-06
2.22080549157285e-06
2.2440789855033e-06
2.26705231133007e-06
2.28968149498668e-06
2.31192413396207e-06
2.33373951625448e-06
2.35508872651621e-06
2.37593473873075e-06
2.39624249481772e-06
2.41597896881315e-06
2.43511321677134e-06
2.45361641310781e-06
2.47146187448385e-06
2.48862507237501e-06
2.50508363522114e-06
2.52081734066964e-06
2.53580809802493e-06
2.55003992070379e-06
2.5634988883693e-06
2.57617309855795e-06
2.58805260803778e-06
2.59912936474968e-06
2.60939713181592e-06
2.61885140556317e-06
2.62748932969495e-06
2.6353096076947e-06
2.64231241536365e-06
2.64849931518285e-06
2.65387317392565e-06
2.65843808460451e-06
2.66219929344823e-06
2.66516313227082e-06
2.66733695638621e-06
2.66872908813069e-06
2.6693487659819e-06
2.66920609911601e-06
2.66831202702041e-06
2.66667828355906e-06
2.66431736475152e-06
2.66124249948524e-06
2.65746762235976e-06
2.65300734774792e-06
2.64787694388377e-06
2.64209230540189e-06
2.63566992243047e-06
2.62862684428229e-06
2.62098063609716e-06
2.61274932739998e-06
2.60395135223748e-06
2.59460548110009e-06
2.58473074508614e-06
2.57434635277311e-06
2.56347160021295e-06
2.55212577455475e-06
2.54032805208619e-06
2.52809739190936e-06
2.51545242689367e-06
2.50241135386498e-06
2.48899182513784e-06
2.47521084346724e-06
2.46108466231855e-06
2.44662869308672e-06
2.43185742059895e-06
2.41678432794466e-06
2.40142183141312e-06
2.38578122610406e-06
2.3698726426208e-06
2.35370501516288e-06
2.33728606130247e-06
2.32062227373154e-06
2.30371892426004e-06
2.28658008030196e-06
2.26920863402237e-06
2.25160634424385e-06
2.23377389109854e-06
2.21571094322247e-06
2.19741623702155e-06
2.17888766722925e-06
2.16012238767617e-06
2.14111692095083e-06
2.12186727547662e-06
2.1023690684524e-06
2.08261765306138e-06
2.06260824830218e-06
2.0423360697424e-06
2.0217964595161e-06
2.00098501411396e-06
1.97989770900318e-06
1.95853101975653e-06
1.93688203995322e-06
1.91494859647069e-06
1.89272936288454e-06
1.87022397160743e-06
1.84743312522242e-06
1.82435870725544e-06
1.80100389239597e-06
1.77737325591285e-06
1.75347288173018e-06
1.72931046834371e-06
1.70489543147451e-06
1.68023900206797e-06
1.65535431796598e-06
1.6302565073573e-06
1.60496276201959e-06
1.57949239846589e-06
1.5538669053861e-06
1.52810997614755e-06
1.50224752548356e-06
1.47630768977631e-06
1.45032081048816e-06
1.42431940033914e-06
1.39833809186999e-06
1.372413568171e-06
1.34658447580523e-06
1.32089132022035e-06
1.29537634413742e-06
1.27008338952125e-06
1.24505774382632e-06
1.22034597130883e-06
1.19599573031997e-06
1.17205557767718e-06
1.14857476144382e-06
1.1256030036565e-06
1.10319027465011e-06
1.08138656065123e-06
1.06024162630089e-06
1.03980477376959e-06
1.02012460014636e-06
1.00124875480357e-06
9.83223698442138e-07
9.6609446551166e-07
9.49904431681661e-07
9.34695088000713e-07
9.20505823298067e-07
9.07373716252281e-07
8.95333338388482e-07
8.8441656908943e-07
8.74652423532165e-07
8.66066894304644e-07
8.58682807316072e-07
8.5251969247764e-07
8.47593669483198e-07
8.43917348861496e-07
8.4149974831737e-07
8.40346224248544e-07
8.40458418228579e-07
8.41834218176828e-07
8.44467733877893e-07
8.48349286467084e-07
8.53465411483801e-07
8.59798875119387e-07
8.6732870333192e-07
8.76030223547979e-07
8.85875118724671e-07
8.96831493616995e-07
9.08863953177657e-07
9.21933693088036e-07
9.35998602475511e-07
9.51013378924658e-07
9.66929655939737e-07
9.8369614304207e-07
1.00125877865567e-06
1.01956089583489e-06
1.03854340074381e-06
1.05814496365315e-06
1.07830222210465e-06
1.09894999581149e-06
1.12002151281236e-06
1.14144864636941e-06
1.16316216206844e-06
1.18509197451332e-06
1.20716741289489e-06
1.22931749458029e-06
1.25147120573161e-06
1.27355778781658e-06
1.29550702869878e-06
1.31724955678243e-06
1.33871713644708e-06
1.35984296276086e-06
1.38056195322385e-06
1.40081103408274e-06
1.42052941860071e-06
1.43965887460162e-06
1.45814397864434e-06
1.47593235427533e-06
1.49297489190481e-06
1.50922594800914e-06
1.52464352171228e-06
1.53918940741359e-06
1.55282932290982e-06
1.56553301318596e-06
1.57727433054449e-06
1.58803129196846e-06
1.59778611464175e-06
1.60652523045826e-06
1.61423928020875e-06
1.62092308800686e-06
1.62657561646229e-06
1.63119990314369e-06
1.63480297896827e-06
1.63739576926397e-06
1.63899297833692e-06
1.63961295843736e-06
1.63927756408221e-06
1.63801199279157e-06
1.635844613428e-06
1.63280678345731e-06
1.62893265653032e-06
1.62425898178072e-06
1.618824896132e-06
1.61267171071769e-06
1.60584269227694e-06
1.59838284013878e-06
1.59033865919723e-06
1.58175792912707e-06
1.5726894699844e-06
1.56318290425432e-06
1.5532884153567e-06
1.54305650265543e-06
1.53253773320916e-06
1.52178249086546e-06
1.51084072376745e-06
1.49976169179576e-06
1.48859371581037e-06
1.47738393073326e-06
1.46617804453999e-06
1.45502010517472e-06
1.4439522773367e-06
1.43301463102507e-06
1.42224494364392e-06
1.41167851733077e-06
1.40134801297686e-06
1.39128330217369e-06
1.38151133806432e-06
1.37205604580512e-06
1.36293823306147e-06
1.35417552068762e-06
1.34578229350178e-06
1.33776967088315e-06
1.33014549678099e-06
1.32291434860688e-06
1.31607756436035e-06
1.30963328723575e-06
1.30357652692084e-06
1.2978992368396e-06
1.29259040667648e-06
1.2876361695988e-06
1.28301992364049e-06
1.27872246672643e-06
1.27472214480509e-06
1.27099501250666e-06
1.26751500563734e-06
1.26425412466816e-06
1.2611826282264e-06
1.25826923551373e-06
1.25548133659032e-06
1.25278520956153e-06
1.2501462438206e-06
1.24752916856759e-06
1.24489828580942e-06
1.24221770696344e-06
1.23945159207957e-06
1.23656439059253e-06
1.23352108241955e-06
1.23028741810895e-06
1.22683015659681e-06
1.22311729893534e-06
1.21911831614057e-06
1.21480436911232e-06
1.21014851846543e-06
1.20512592212993e-06
1.19971401873366e-06
1.19389269501201e-06
1.18764443570132e-06
1.18095445453888e-06
1.17381080518501e-06
1.16620447120296e-06
1.15812943469867e-06
1.14958272374641e-06
1.14056443916015e-06
1.13107776141799e-06
1.12112893862082e-06
1.11072725635941e-06
1.09988499035527e-06
1.08861734275793e-06
1.07694236303547e-06
1.06488085448745e-06
1.05245626752037e-06
1.03969458091937e-06
1.02662417240508e-06
1.01327567977314e-06
9.9968185386595e-07
9.85877404516702e-07
9.71898840455283e-07
9.57784304021496e-07
9.4357340142555e-07
9.29307029220964e-07
9.15027197576947e-07
9.00776850838888e-07
8.86599685760461e-07
8.72539967703107e-07
8.58642345044753e-07
8.44951662025859e-07
8.31512770287326e-07
8.18370339419296e-07
8.05568666932345e-07
7.93151488151711e-07
7.81161786580257e-07
7.69641605268296e-07
7.5863185971259e-07
7.48172152847527e-07
7.38300592811519e-07
7.29053614325062e-07
7.20465804628915e-07
7.12569734961131e-07
7.05395798510231e-07
6.98972055702986e-07
6.93324087602151e-07
6.88474858122067e-07
6.84444585721216e-07
6.81250625188843e-07
6.78907360090911e-07
6.77426106368662e-07
6.76815027492051e-07
6.77079061473831e-07
6.7821985996863e-07
6.80235739636333e-07
6.83121645952442e-07
6.86869129694377e-07
6.91466336400842e-07
6.96898009164947e-07
7.03145505159227e-07
7.10186826290047e-07
7.17996664340694e-07
7.26546460898803e-07
7.35804482290278e-07
7.45735909664937e-07
7.56302944297085e-07
7.67464928078613e-07
7.79178479106112e-07
7.91397642212612e-07
8.04074054268338e-07
8.17157124047215e-07
8.30594226394754e-07
8.44330910325842e-07
8.58311120539351e-07
8.72477431684274e-07
8.86771294576279e-07
9.01133293462007e-07
9.15503413354857e-07
9.29821316390011e-07
9.44026626041043e-07
9.58059217911924e-07
9.7185951570318e-07
9.85368790882937e-07
9.98529464569688e-07
1.01128541011409e-06
1.02358225480983e-06
1.03536767906193e-06
1.04659171122401e-06
1.05720701621785e-06
1.06716917599251e-06
1.07643695987445e-06
1.0849725828944e-06
1.09274195021059e-06
1.09971488574281e-06
1.10586534309917e-06
1.11117159687783e-06
1.11561641251354e-06
1.11918719300431e-06
1.12187610104391e-06
1.12368015526568e-06
1.1246012995031e-06
1.12464644422512e-06
1.12382747957234e-06
1.12216125962532e-06
1.11966955767147e-06
1.11637899238967e-06
1.11232092514034e-06
1.10753132893506e-06
1.10205063005997e-06
1.095923523607e-06
1.08919876426126e-06
1.08192893365898e-06
1.0741701855897e-06
1.06598197036698e-06
1.05742673984912e-06
1.04856963480311e-06
1.03947815650548e-06
1.03022182461977e-06
1.02087182347501e-06
1.01150063890974e-06
1.00218168784805e-06
9.92988942736245e-07
9.83996552887887e-07
9.75278464676857e-07
9.6690804239977e-07
9.58957691513443e-07
9.51498485850485e-07
9.44599800328188e-07
9.38328950574932e-07
9.32750840783046e-07
9.27927620964417e-07
9.2391835467927e-07
9.20778698284597e-07
9.18560592831962e-07
9.17311969907825e-07
9.17076472887334e-07
9.17893195201224e-07
9.19796437267283e-07
9.2281548372025e-07
9.26974402505236e-07
9.32291867293602e-07
9.38781004550891e-07
9.46449266454455e-07
9.55298330742389e-07
9.65324028477537e-07
9.76516300615042e-07
9.88859184148396e-07
1.00233082846511e-06
1.01690354237497e-06
1.03254387210177e-06
1.04921271037041e-06
1.06686543657235e-06
1.08545208784079e-06
1.10491756070816e-06
1.1252018428575e-06
1.14624027431373e-06
1.1679638372421e-06
1.19029947332491e-06
1.21317042748334e-06
1.23649661650697e-06
1.2601950209473e-06
1.2841800984206e-06
1.30836421626199e-06
1.3326581012891e-06
1.35697130426262e-06
1.38121267645125e-06
1.4052908555198e-06
1.4291147577992e-06
1.45259407391413e-06
1.47563976474057e-06
1.49816455467781e-06
1.52008341917204e-06
1.54131406329938e-06
1.56177738806049e-06
1.58139794094234e-06
1.60010434733084e-06
1.61782971951584e-06
1.63451204025336e-06
1.65009451803606e-06
1.66452591129308e-06
1.67776081871609e-06
1.68975993294541e-06
1.70049025516128e-06
1.70992526882137e-06
1.71804507175113e-06
1.7248364667465e-06
1.73029301152078e-06
1.73441502912219e-06
1.73720957994838e-06
1.73869039635412e-06
1.73887778071034e-06
1.73779846766249e-06
1.73548545123712e-06
1.73197777737983e-06
1.72732030256348e-06
1.72156341936541e-06
1.71476275038074e-06
1.7069788124308e-06
1.69827665362238e-06
1.68872546630798e-06
1.67839817931639e-06
1.66737103294565e-06
1.65572314016684e-06
1.64353603733761e-06
1.63089322752017e-06
1.61787971925988e-06
1.60458156341546e-06
1.59108539035477e-06
1.57747794957112e-06
1.56384565355443e-06
1.55027412757807e-06
1.53684776692579e-06
1.52364930297286e-06
1.51075937946661e-06
1.49825614036536e-06
1.48621483072975e-06
1.47470741240967e-06
1.46380219656708e-06
1.45356349531866e-06
1.44405129488435e-06
1.43532095257027e-06
1.42742291975197e-06
1.42040249283641e-06
1.41429959400588e-06
1.40914858336907e-06
1.40497810393501e-06
1.40181096058161e-06
1.39966403393113e-06
1.39854822979167e-06
1.39846846458853e-06
1.3994236869904e-06
1.40140693572498e-06
1.40440543336859e-06
1.40840071568346e-06
1.41336879586891e-06
1.41928036288518e-06
1.42610101278394e-06
1.43379151172172e-06
1.44230808904098e-06
1.4516027584986e-06
1.4616236654341e-06
1.47231545743655e-06
1.48361967591936e-06
1.49547516595275e-06
1.50781850171029e-06
1.52058442489891e-06
1.53370629348588e-06
1.54711653786771e-06
1.56074712135672e-06
1.57453000154768e-06
1.58839758884515e-06
1.60228319825977e-06
1.61612149058134e-06
1.62984889922547e-06
1.64340403938151e-06
1.65672809646446e-06
1.66976519119088e-06
1.68246271883169e-06
1.69477166040727e-06
1.70664686386821e-06
1.71804729365194e-06
1.72893624734187e-06
1.73928153838943e-06
1.74905564394971e-06
1.75823581686754e-06
1.76680416082759e-06
1.77474766774574e-06
1.78205821668371e-06
1.78873253394075e-06
1.79477211449054e-06
1.80018310548072e-06
1.80497615296091e-06
1.80916621333596e-06
1.81277233136124e-06
1.81581738688264e-06
1.81832781294757e-06
1.82033328831936e-06
1.82186640779589e-06
1.8229623340455e-06
1.82365843488009e-06
1.82399390994205e-06
1.82400941068934e-06
1.82374665736485e-06
1.82324805637427e-06
1.82255632120259e-06
1.82171409969249e-06
1.82076361020759e-06
1.81974628893587e-06
1.81870245038545e-06
1.81767096299119e-06
1.81668894164086e-06
1.81579145880166e-06
1.81501127578911e-06
1.81437859560792e-06
1.8139208387131e-06
1.81366244294646e-06
1.81362468874368e-06
1.8138255504716e-06
1.81427957450067e-06
1.8149977844163e-06
1.81598761365215e-06
1.81725286575077e-06
1.8187937023531e-06
1.82060665883502e-06
1.82268468724623e-06
1.8250172259257e-06
1.82759029496e-06
1.83038661657323e-06
1.83338575957313e-06
1.83656430703652e-06
1.83989604640128e-06
1.84335218101336e-06
1.84690156200934e-06
1.85051093926653e-06
1.85414523003909e-06
1.85776780378662e-06
1.8613407815551e-06
1.86482534807186e-06
1.86818207446009e-06
1.87137124917253e-06
1.8743532144241e-06
1.8770887051284e-06
1.87953918717079e-06
1.88166719179999e-06
1.88343664295624e-06
1.88481317441211e-06
1.88576443363701e-06
1.88626036931454e-06
1.88627349947857e-06
1.88577915733159e-06
1.88475571199049e-06
1.88318476164615e-06
1.88105129686728e-06
1.87834383200969e-06
1.87505450301192e-06
1.87117913042243e-06
1.86671724736836e-06
1.86167209321834e-06
1.85605057468124e-06
1.84986319679989e-06
1.8431239666317e-06
1.83585027238392e-06
1.82806274051945e-06
1.81978507302295e-06
1.81104386673071e-06
1.80186841645399e-06
1.79229050360911e-06
1.78234417221938e-06
1.7720654944312e-06
1.76149232799091e-06
1.75066406833945e-06
1.73962139802322e-06
1.72840603600591e-06
1.71706048927503e-06
1.70562780893638e-06
1.694151352779e-06
1.68267455603785e-06
1.67124071176398e-06
1.65989276186303e-06
1.6486730995274e-06
1.63762338349147e-06
1.6267843642889e-06
1.61619572249733e-06
1.6058959188558e-06
1.59592205616567e-06
1.58630975300726e-06
1.57709302942562e-06
1.56830420476215e-06
1.55997380771091e-06
1.55213049851392e-06
1.54480100308645e-06
1.53801005886757e-06
1.5317803723144e-06
1.52613258808325e-06
1.52108526994637e-06
1.51665489335137e-06
1.51285584929963e-06
1.50970045897576e-06
1.50719899835809e-06
1.50535973189504e-06
1.50418895422114e-06
1.50369103877036e-06
1.50386849201702e-06
1.50472201197689e-06
1.50625054958799e-06
1.50845137166266e-06
1.51132012419158e-06
1.51485089483987e-06
1.51903627356505e-06
1.52386741051099e-06
1.52933407069999e-06
1.53542468543177e-06
1.54212640055222e-06
1.54942512182629e-06
1.55730555759764e-06
1.56575125884482e-06
1.57474465674334e-06
1.58426709796741e-06
1.59429887820335e-06
1.60481927462357e-06
1.61580657828657e-06
1.62723812750775e-06
1.63909034315849e-06
1.65133876663074e-06
1.66395810094079e-06
1.67692225524226e-06
1.69020439292913e-06
1.70377698350274e-06
1.71761185838157e-06
1.73168027084137e-06
1.74595296035073e-06
1.76040022175605e-06
1.77499198001792e-06
1.78969787138678e-06
1.80448733192955e-06
1.81932969415944e-06
1.83419429223376e-06
1.84905057584158e-06
1.8638682325566e-06
1.87861731810935e-06
1.89326839376822e-06
1.9077926698605e-06
1.922162154446e-06
1.93634980622969e-06
1.95032969084967e-06
1.96407713962347e-06
1.97756890970155e-06
1.99078334442091e-06
2.00370053248123e-06
2.01630246435198e-06
2.02857318407035e-06
2.04049893436027e-06
2.05206829284323e-06
2.06327229705301e-06
2.07410455601239e-06
2.08456134624549e-06
2.09464169022288e-06
2.10434741535016e-06
2.11368319174686e-06
2.1226565472579e-06
2.13127785840539e-06
2.13956031630987e-06
2.14751986693226e-06
2.15517512522639e-06
2.1625472628919e-06
2.16965986944735e-06
2.17653878650434e-06
2.18321191562024e-06
2.18970900096914e-06
2.19606138908802e-06
2.20230176882274e-06
2.20846389514166e-06
2.21458230076199e-06
2.22069199968863e-06
2.22682818683712e-06
2.23302593784036e-06
2.23931991291729e-06
2.24574406839917e-06
2.25233137926642e-06
2.25911357586673e-06
2.26612089779365e-06
2.273381867626e-06
2.28092308684704e-06
2.28876905582377e-06
2.29694201926964e-06
2.30546183815456e-06
2.31434588857342e-06
2.32360898765867e-06
2.33326334625973e-06
2.3433185478649e-06
2.35378155314498e-06
2.36465672951348e-06
2.37594590510629e-06
2.38764844647833e-06
2.39976135909632e-06
2.41227940946288e-06
2.42519526750708e-06
2.43849966771835e-06
2.45218158733121e-06
2.46622843965348e-06
2.48062628039959e-06
2.49536002470222e-06
2.51041367235313e-06
2.52577053875992e-06
2.54141348910642e-06
2.55732517328558e-06
2.57348825930049e-06
2.58988566288805e-06
2.60650077099809e-06
2.62331765646684e-06
2.64032128089509e-06
2.65749768255524e-06
2.67483414622409e-06
2.69231935219018e-06
2.7099435022229e-06
2.72769842084848e-06
2.74557763072982e-06
2.76357640134383e-06
2.78169177065611e-06
2.79992254016368e-06
2.81826924434485e-06
2.83673409602215e-06
2.85532090937845e-06
2.87403500245315e-06
2.89288308092783e-06
2.91187310487512e-06
2.93101413989e-06
2.95031619369049e-06
2.96979003896611e-06
2.98944702313143e-06
3.00929886583133e-06
3.02935744549907e-06
3.04963457677421e-06
3.07014178090806e-06
3.09089005134729e-06
3.11188961661205e-06
3.13314970255422e-06
3.15467829618424e-06
3.17648191347631e-06
3.198565373833e-06
3.22093158410549e-06
3.24358133510683e-06
3.26651311337518e-06
3.28972293061893e-06
3.31320417294182e-06
3.33694747169067e-06
3.36094059757146e-06
3.38516837944394e-06
3.40961264887622e-06
3.43425221116878e-06
3.45906284323564e-06
3.48401731848843e-06
3.50908545866903e-06
3.53423421236968e-06
3.55942775973954e-06
3.58462764259518e-06
3.60979291883679e-06
3.63488033974357e-06
3.65984454841135e-06
3.68463829732698e-06
3.70921268283733e-06
3.73351739404122e-06
3.75750097345474e-06
3.78111108680378e-06
3.8042947995782e-06
3.82699885849801e-06
3.84916997665516e-06
3.87075512165856e-06
3.89170180649819e-06
3.91195838296445e-06
3.931474337329e-06
3.95020058775631e-06
3.9680897827286e-06
3.98509659967723e-06
4.00117804293926e-06
4.01629373995512e-06
4.03040623418872e-06
4.04348127258334e-06
4.05548808456221e-06
4.06639964879038e-06
4.07619294333094e-06
4.08484917463634e-06
4.09235398105519e-06
4.0986976070146e-06
4.10387504447317e-06
4.10788613845139e-06
4.11073565345421e-06
4.1124332976194e-06
4.11299370179286e-06
4.112436351717e-06
4.11078547310748e-06
4.10806987121763e-06
4.10432272801788e-06
4.09958136103255e-06
4.09388694828345e-06
4.0872842239751e-06
4.0798211496342e-06
4.07154856533702e-06
4.06251982548457e-06
4.05279042350843e-06
4.04241760998364e-06
4.03146000871244e-06
4.01997723518401e-06
4.00802952133882e-06
3.99567734991405e-06
3.98298110104193e-06
3.97000071340158e-06
3.95679536212863e-06
3.94342315576647e-06
3.92994085468482e-06
3.91640361355127e-06
3.90286475055539e-06
3.88937554601415e-06
3.87598507263611e-06
3.86274005912753e-06
3.84968478810177e-06
3.83686102850159e-06
3.82430800201789e-06
3.81206238232032e-06
3.80015832535475e-06
3.78862752860253e-06
3.77749931710588e-06
3.76680075416727e-06
3.75655677471773e-06
3.74679033926317e-06
3.7375226060918e-06
3.72877311921157e-06
3.72056000937046e-06
3.71290020546662e-06
3.70580965363296e-06
3.69930354134331e-06
3.6933965241374e-06
3.6881029529565e-06
3.68343710039818e-06
3.67941338422805e-06
3.67604658618447e-06
3.67335206355924e-06
3.6713459503464e-06
3.67004534405529e-06
3.66946847374923e-06
3.66963484467445e-06
3.67056535509249e-06
3.67228238157513e-06
3.6748098298294e-06
3.67817314881454e-06
3.6823993064421e-06
3.68751672582029e-06
3.69355518218034e-06
3.70054566226708e-06
3.70852018957558e-06
3.71751161987103e-06
3.72755341184188e-06
3.73867937770401e-06
3.75092341828209e-06
3.76431924663675e-06
3.77890010376463e-06
3.79469846935435e-06
3.81174577007391e-06
3.83007208738283e-06
3.84970586639354e-06
3.87067362687338e-06
3.89299967715083e-06
3.91670583153353e-06
3.94181113183082e-06
3.96833157358826e-06
3.99627983765932e-06
4.02566502789347e-06
4.05649241613828e-06
4.08876319637189e-06
4.12247425035883e-06
4.15761792752165e-06
4.1941818416897e-06
4.2321486871324e-06
4.27149607593669e-06
4.31219639841046e-06
4.35421670781979e-06
4.39751863046467e-06
4.44205830192605e-06
4.48778633022888e-06
4.53464778653149e-06
4.58258222370924e-06
4.63152372288405e-06
4.68140096759601e-06
4.73213734494467e-06
4.7836510727593e-06
4.83585535187451e-06
4.88865854299398e-06
4.94196436829622e-06
4.99567213856005e-06
5.04967700686853e-06
5.10387024981465e-06
5.15813957676889e-06
5.21236946744215e-06
5.266441537793e-06
5.32023493418722e-06
5.37362675545932e-06
5.42649250210555e-06
5.47870655136762e-06
5.53014265658136e-06
5.58067446885044e-06
5.63017607872672e-06
5.67852257505022e-06
5.72559061746273e-06
5.77125901848567e-06
5.81540933062442e-06
5.85792643384412e-06
5.8986991188656e-06
5.93762066186104e-06
5.97458938630538e-06
6.00950920814958e-06
6.04229016110523e-06
6.07284889936652e-06
6.10110917536881e-06
6.12700229034384e-06
6.15046751564738e-06
6.17145248299915e-06
6.18991354166756e-06
6.20581608027373e-06
6.21913481058538e-06
6.22985401068909e-06
6.23796772519363e-06
6.2434799203001e-06
6.24640459148142e-06
6.24676582130755e-06
6.24459778495209e-06
6.23994470125843e-06
6.2328607278355e-06
6.22340979935336e-06
6.21166540892327e-06
6.19771033304763e-06
6.18163630095174e-06
6.16354360918175e-06
6.14354068249927e-06
6.12174358272287e-06
6.09827546834258e-06
6.07326600916263e-06
6.04685076148511e-06
6.01917051012025e-06
5.9903705836816e-06
5.96060014928623e-06
5.93001149218404e-06
5.89875928521298e-06
5.86699985237001e-06
5.83489043015426e-06
5.80258842971282e-06
5.77025070230184e-06
5.73803281024059e-06
5.70608830542761e-06
5.67456801759771e-06
5.64361935469182e-06
5.61338561776676e-06
5.5840053326785e-06
5.55561160042161e-06
5.52833146773058e-06
5.50228531956371e-06
5.47758629545127e-06
5.45433973224581e-06
5.4326426363066e-06
5.41258318840499e-06
5.3942402846809e-06
5.37768311694507e-06
5.36297079552039e-06
5.35015201751821e-06
5.3392647829286e-06
5.33033616038256e-06
5.32338210420897e-06
5.31840732453665e-06
5.31540521245717e-06
5.31435782233307e-06
5.31523591304824e-06
5.31799904944721e-06
5.32259576457833e-06
5.32896378271955e-06
5.33703030250829e-06
5.34671233878847e-06
5.35791712102512e-06
5.37054254538417e-06
5.3844776770047e-06
5.39960329876695e-06
5.41579250295406e-06
5.4329113223834e-06
5.45081939759337e-06
5.46937067643334e-06
5.48841414205671e-06
5.50779456514388e-06
5.52735327643528e-06
5.54692895632275e-06
5.56635843897904e-06
5.58547752885913e-06
5.60412182722892e-06
5.62212756587911e-06
5.6393324446881e-06
5.65557646937223e-06
5.670702785562e-06
5.68455850510501e-06
5.69699552007074e-06
5.70787129930181e-06
5.71704966161496e-06
5.72440151905163e-06
5.72980558312802e-06
5.73314902707559e-06
5.73432809764278e-06
5.73324867088002e-06
5.72982674711018e-06
5.72398888091477e-06
5.71567254260612e-06
5.70482640839287e-06
5.69141057718098e-06
5.67539671261101e-06
5.65676810957677e-06
5.63551968515244e-06
5.61165789449497e-06
5.58520057282619e-06
5.55617670524594e-06
5.52462612723551e-06
5.49059916026965e-06
5.45415618844907e-06
5.41536718299312e-06
5.37431118182462e-06
5.33107573168348e-06
5.28575630035113e-06
5.23845566645846e-06
5.1892832938383e-06
5.13835469657142e-06
5.08579079998763e-06
5.03171730208691e-06
4.97626403919727e-06
4.9195643591676e-06
4.86175450497158e-06
4.80297301125062e-06
4.74336011602612e-06
4.6830571895168e-06
4.62220618166021e-06
4.56094908959319e-06
4.49942744614425e-06
4.43778183044457e-06
4.3761514019629e-06
4.31467345936813e-06
4.25348302549328e-06
4.19271245936683e-06
4.13249109590488e-06
4.07294491350243e-06
4.01419622946301e-06
3.95636342295082e-06
3.89956068491073e-06
3.8438977942114e-06
3.78947991920152e-06
3.73640744395423e-06
3.68477581864093e-06
3.63467543362218e-06
3.58619151693027e-06
3.53940405489542e-06
3.49438773578574e-06
3.45121191644106e-06
3.4099406118856e-06
3.37063250781911e-06
3.33334099582271e-06
3.298114231133e-06
3.26499521286574e-06
3.23402188652821e-06
3.2052272685295e-06
3.17863959218622e-06
3.15428247440631e-06
3.13217510181393e-06
3.11233243459856e-06
3.09476542588632e-06
3.07948125395753e-06
3.06648356417651e-06
3.0557727170586e-06
3.04734603846586e-06
3.04119806748187e-06
3.03732079710797e-06
3.0357039026612e-06
3.03633495277845e-06
3.03919959833726e-06
3.04428173538756e-06
3.05156363921733e-06
3.06102606771289e-06
3.07264833301202e-06
3.08640834107973e-06
3.10228259946437e-06
3.12024619430377e-06
3.14027273860933e-06
3.16233429471921e-06
3.18640127438479e-06
3.21244232026632e-06
3.2404241728019e-06
3.27031152650429e-06
3.3020668796687e-06
3.33565038123952e-06
3.37101967827028e-06
3.40812976708824e-06
3.44693285094416e-06
3.48737820657559e-06
3.52941206181975e-06
3.57297748633753e-06
3.61801429770813e-06
3.66445898545549e-06
3.71224465572131e-06
3.76130099918465e-06
3.8115542844823e-06
3.86292737888564e-06
3.91533979743478e-06
3.9687077812907e-06
4.02294440593695e-06
4.07795972006972e-06
4.13366091635347e-06
4.18995253542377e-06
4.2467367044784e-06
4.30391341154149e-06
4.36138081607498e-06
4.41903559611004e-06
4.47677333153431e-06
4.53448892261816e-06
4.59207704230455e-06
4.64943262024828e-06
4.70645135608035e-06
4.76303025883857e-06
4.81906820891015e-06
4.87446653819936e-06
4.92912962360306e-06
4.98296548824914e-06
5.03588640430885e-06
5.08780949053787e-06
5.13865729710135e-06
5.1883583698036e-06
5.23684778558508e-06
5.28406765091126e-06
5.32996755431486e-06
5.3745049639947e-06
5.41764556142073e-06
5.45936350266536e-06
5.4996416005431e-06
5.53847142203932e-06
5.57585329646232e-06
5.61179623035985e-06
5.64631772613232e-06
5.6794435030844e-06
5.711207122475e-06
5.7416495213385e-06
5.77081846249097e-06
5.79876790955336e-06
5.82555733611531e-06
5.85125097800213e-06
5.87591703768773e-06
5.89962685049044e-06
5.92245402308911e-06
5.94447355564535e-06
5.96576095904171e-06
5.98639137838841e-06
6.00643873329013e-06
6.02597488476e-06
6.0450688382463e-06
6.06378599181997e-06
6.08218743792292e-06
6.10032932615031e-06
6.11826229344759e-06
6.13603096696199e-06
6.15367354363685e-06
6.17122144947538e-06
6.18869908023904e-06
6.20612362421638e-06
6.22350496660247e-06
6.24084567392548e-06
6.25814105581129e-06
6.27537930022568e-06
6.29254167732573e-06
6.30960280640285e-06
6.32653098024718e-06
6.34328854149114e-06
6.35983230577089e-06
6.37611402658264e-06
6.39208089646825e-06
6.40767607878064e-06
6.42283926380394e-06
6.43750724233147e-06
6.45161448892853e-06
6.46509374630964e-06
6.4778766019388e-06
6.48989404826867e-06
6.50107701871856e-06
6.51135689216193e-06
6.52066595930182e-06
6.52893784528006e-06
6.53610788465295e-06
6.54211344736383e-06
6.5468942168041e-06
6.5503924226689e-06
6.5525530318948e-06
6.55332390103333e-06
6.55265589362954e-06
6.5505029667769e-06
6.54682223180318e-06
6.54157399471989e-06
6.53472178253464e-06
6.52623236182711e-06
6.51607575616743e-06
6.50422526894835e-06
6.49065751789204e-06
6.47535248684225e-06
6.45829359953736e-06
6.43946781900307e-06
6.41886577509176e-06
6.39648192155385e-06
6.37231472284445e-06
6.34636686963001e-06
6.31864552067243e-06
6.28916256746864e-06
6.25793491678444e-06
6.22498478519476e-06
6.19033999917807e-06
6.15403429444095e-06
6.11610760894999e-06
6.07660636527093e-06
6.03558373874176e-06
5.99309990833969e-06
5.94922228673974e-06
5.9040257251939e-06
5.85759268782345e-06
5.81001338908787e-06
5.76138588790211e-06
5.71181613227195e-06
5.66141794923e-06
5.61031297584311e-06
5.55863052771079e-06
5.50650740160902e-06
5.45408760912012e-06
5.40152203879385e-06
5.3489680459036e-06
5.29658897090245e-06
5.24455358957548e-06
5.1930354990845e-06
5.14221244449626e-06
5.09226559018368e-06
5.04337874001648e-06
4.99573750982224e-06
4.94952845544589e-06
4.90493816001678e-06
4.86215228478831e-06
4.82135458904096e-06
4.78272592578686e-06
4.7464432210708e-06
4.71267844528546e-06
4.68159758504137e-06
4.65335962386795e-06
4.62811553959703e-06
4.60600732591174e-06
4.58716704531278e-06
4.57171592056957e-06
4.55976347145082e-06
4.55140670312393e-06
4.54672935210511e-06
4.54580119504518e-06
4.54867742494453e-06
4.55539809862162e-06
4.56598765844587e-06
4.58045453051349e-06
4.59879080061873e-06
4.62097196858977e-06
4.64695678089087e-06
4.67668714099422e-06
4.71008809708378e-06
4.74706790721107e-06
4.78751818285641e-06
4.83131411257771e-06
4.87831476776728e-06
4.92836349243442e-06
4.9812883785253e-06
5.03690282772397e-06
5.09500619999468e-06
5.15538454832953e-06
5.21781143827652e-06
5.28204884985918e-06
5.34784815847624e-06
5.41495119037157e-06
5.4830913474403e-06
5.55199479557697e-06
5.62138171038102e-06
5.6909675736178e-06
5.76046451329453e-06
5.82958267966423e-06
5.89803164910385e-06
5.9655218476972e-06
6.03176598635132e-06
6.09648049916039e-06
6.15938697640389e-06
6.22021358312479e-06
6.27869645383105e-06
6.33458105359153e-06
6.38762349573983e-06
6.43759180666477e-06
6.48426712873699e-06
6.52744485304186e-06
6.56693567389985e-06
6.6025665570556e-06
6.6341816132541e-06
6.66164286929299e-06
6.68483092989998e-06
6.70364552569087e-06
6.71800594426945e-06
6.72785134253695e-06
6.73314093839104e-06
6.73385407975056e-06
6.72999018894324e-06
6.72156858131916e-06
6.70862815841489e-06
6.69122697765908e-06
6.66944170196937e-06
6.64336693342853e-06
6.61311443585133e-06
6.5788122520344e-06
6.54060372307934e-06
6.49864641907986e-06
6.45311099204154e-06
6.40417996272658e-06
6.35204645325537e-06
6.2969128771474e-06
6.23898959834671e-06
6.17849357066925e-06
6.11564696892609e-06
6.05067582263555e-06
5.98380866270479e-06
5.91527519075298e-06
5.8453049799471e-06
5.77412621544871e-06
5.70196448190373e-06
5.62904160482154e-06
5.5555745520742e-06
5.48177440100429e-06
5.40784537578722e-06
5.33398395890438e-06
5.26037808000748e-06
5.18720638513038e-06
5.11463758901648e-06
5.04282991308605e-06
4.97193061112434e-06
4.90207558410243e-06
4.83338908472222e-06
4.7659835114259e-06
4.6999592908099e-06
4.63540484663795e-06
4.57239665292048e-06
4.51099936780544e-06
4.45126604433203e-06
4.39323841345331e-06
4.33694723413458e-06
4.28241270482453e-06
4.22964493033172e-06
4.17864443831335e-06
4.12940274020269e-06
4.08190293216975e-06
4.03612033221346e-06
3.99202314949502e-06
3.94957318161603e-06
3.90872653494995e-06
3.86943436253651e-06
3.83164361353179e-06
3.79529778781605e-06
3.76033768909863e-06
3.72670216966517e-06
3.69432885975522e-06
3.66315487454043e-06
3.63311749193543e-06
3.60415479503187e-06
3.57620627365383e-06
3.5492133802331e-06
3.52312003586717e-06
3.49787308311962e-06
3.47342268285679e-06
3.44972265305192e-06
3.4267307479255e-06
3.40440887617521e-06
3.38272325772863e-06
3.36164451966464e-06
3.34114773354682e-06
3.32121239790825e-06
3.30182237054402e-06
3.28296575548614e-06
3.26463474929613e-06
3.24682545094488e-06
3.22953763927385e-06
3.21277452190781e-06
3.1965424594538e-06
3.18085066874011e-06
3.16571090861263e-06
3.15113715139484e-06
3.13714524262909e-06
3.12375255129626e-06
3.1109776124379e-06
3.09883976393062e-06
3.08735877902305e-06
3.0765544962116e-06
3.06644644825574e-06
3.05705349264501e-06
3.04839344643893e-06
3.04048272884982e-06
3.03333601511493e-06
3.02696590519776e-06
3.02138261081652e-06
3.01659366427832e-06
3.01260365255259e-06
3.00941397987633e-06
3.00702266191512e-06
3.00542415412874e-06
3.00460921656178e-06
3.00456481683438e-06
3.0052740726449e-06
3.00671623460493e-06
3.00886670970918e-06
3.01169712521099e-06
3.01517543215594e-06
3.01926604735625e-06
3.02393003218014e-06
3.02912530616412e-06
3.03480689311508e-06
3.04092719708167e-06
3.04743630540884e-06
3.05428231609138e-06
3.06141168677861e-06
3.0687696029592e-06
3.07630036297221e-06
3.08394777749719e-06
3.09165558110622e-06
3.09936785336836e-06
3.10702944689632e-06
3.11458641960466e-06
3.12198646835209e-06
3.12917936114649e-06
3.13611736520418e-06
3.14275566825882e-06
3.14905279048243e-06
3.15497098420472e-06
3.16047661841805e-06
3.16554054495438e-06
3.17013844326058e-06
3.17425114085779e-06
3.17786490680173e-06
3.18097171568119e-06
3.18356947979816e-06
3.185662247095e-06
3.18726036220481e-06
3.18838058790529e-06
3.18904618443189e-06
3.18928694451212e-06
3.18913918238393e-06
3.18864567523612e-06
3.18785555547365e-06
3.18682415222275e-06
3.18561278081656e-06
3.1842884796219e-06
3.18292369417721e-06
3.18159590896951e-06
3.18038722740714e-06
3.17938390098815e-06
3.17867580951654e-06
3.17835589531637e-06
3.17851955539574e-06
3.17926399623644e-06
3.18068755643112e-06
3.18288900293658e-06
3.18596680727654e-06
3.19001840846981e-06
3.19513946963134e-06
3.2014231350669e-06
3.20895929434758e-06
3.21783385943419e-06
3.22812806052231e-06
3.23991776595804e-06
3.25327283134309e-06
3.26825648274367e-06
3.28492473865297e-06
3.30332587498618e-06
3.32349993695903e-06
3.34547830129828e-06
3.3692832918804e-06
3.39492785154003e-06
3.42241527242349e-06
3.45173898697504e-06
3.48288242150714e-06
3.51581891426197e-06
3.55051169978142e-06
3.58691396117822e-06
3.62496895153724e-06
3.66461018520034e-06
3.70576169910812e-06
3.74833838368872e-06
3.79224638201958e-06
3.83738355518545e-06
3.88364001095237e-06
3.93089869210073e-06
3.97903602005117e-06
4.02792258883132e-06
4.07742390403625e-06
4.12740116126277e-06
4.17771205851021e-06
4.22821163713031e-06
4.27875314594572e-06
4.32918892303627e-06
4.37937128936928e-06
4.42915344797151e-06
4.47839038183725e-06
4.52693974339184e-06
4.57466272816153e-06
4.62142492534172e-06
4.66709713818732e-06
4.71155616753067e-06
4.75468555213658e-06
4.79637625982844e-06
4.83652732320332e-06
4.87504641331519e-06
4.91185034419621e-06
4.94686550092171e-06
4.98002818445014e-06
5.01128486770271e-06
5.0405923589235e-06
5.06791786976754e-06
5.09323898652575e-06
5.1165435436337e-06
5.13782939971103e-06
5.15710411823877e-06
5.17438455736165e-06
5.1896963754588e-06
5.20307346042892e-06
5.21455729103861e-06
5.22419623865346e-06
5.23204481776342e-06
5.23816289419763e-06
5.24261486074636e-06
5.24546879083514e-06
5.24679558165056e-06
5.24666809846017e-06
5.2451603316783e-06
5.24234657755511e-06
5.23830065237648e-06
5.23309514894458e-06
5.22680074297991e-06
5.21948555597898e-06
5.21121457997434e-06
5.20204916857818e-06
5.19204659767358e-06
5.18125969818315e-06
5.16973656250767e-06
5.15752032544817e-06
5.14464901961519e-06
5.13115550441524e-06
5.1170674666991e-06
5.1024074901488e-06
5.08719318955664e-06
5.07143740533093e-06
5.0551484528337e-06
5.03833042055814e-06
5.02098351075026e-06
5.00310441583749e-06
4.98468672382889e-06
4.96572134562654e-06
4.94619695695011e-06
4.92610044740188e-06
4.90541736924835e-06
4.88413237898658e-06
4.86222966582108e-06
4.83969336269368e-06
4.81650793711188e-06
4.79265856020605e-06
4.7681314528997e-06
4.74291420790998e-06
4.71699608592428e-06
4.69036828414624e-06
4.66302417567465e-06
4.63495951883576e-06
4.60617263643737e-06
4.57666456574764e-06
4.54643918068541e-06
4.51550328818551e-06
4.48386670097455e-06
4.45154228909636e-06
4.41854601251001e-06
4.38489693699402e-06
4.35061723546148e-06
4.31573217661785e-06
4.2802701026225e-06
4.24426239701861e-06
4.20774344376655e-06
4.17075057795241e-06
4.13332402880333e-06
4.09550685600088e-06
4.0573448807209e-06
4.01888661306121e-06
3.98018317740206e-06
3.9412882368472e-06
3.90225791737526e-06
3.86315073176858e-06
3.82402750277202e-06
3.78495128427955e-06
3.74598727873797e-06
3.70720274852063e-06
3.66866691888229e-06
3.63045087030899e-06
3.59262741855659e-06
3.55527098129736e-06
3.51845743095751e-06
3.48226393392033e-06
3.44676877663683e-06
3.41205117922742e-06
3.37819109694717e-06
3.34526900961979e-06
3.31336569899385e-06
3.28256201401947e-06
3.25293862430369e-06
3.22457576245119e-06
3.19755295653431e-06
3.17194875439391e-06
3.14784044168794e-06
3.12530375553975e-06
3.10441259540628e-06
3.08523873255708e-06
3.06785151945045e-06
3.05231760037486e-06
3.03870062497843e-06
3.02706096659624e-06
3.01745544741722e-06
3.00993707246101e-06
3.00455477416737e-06
3.00135316923161e-06
3.00037232914329e-06
3.00164756570058e-06
3.00520923264051e-06
3.01108254450829e-06
3.01928741400383e-06
3.02983830926226e-06
3.04274413275498e-06
3.05800812359812e-06
3.07562778495525e-06
3.09559483798375e-06
3.11789520351498e-06
3.14250901241368e-06
3.1694106452843e-06
3.19856880185435e-06
3.22994660001674e-06
3.26350170421119e-06
3.29918648256209e-06
3.33694819190627e-06
3.37672918951363e-06
3.41846716996929e-06
3.46209542540876e-06
3.50754312706351e-06
3.55473562580012e-06
3.60359476897941e-06
3.65403923060029e-06
3.705984851474e-06
3.75934498615312e-06
3.81403085341024e-06
3.86995188709132e-06
3.92701608421799e-06
3.98513034751072e-06
4.04420082016753e-06
4.10413321155971e-06
4.16483311311856e-06
4.22620630389271e-06
4.28815904518918e-06
4.35059836360283e-06
4.41343232164989e-06
4.47657027510383e-06
4.53992311603616e-06
4.60340350060893e-06
4.66692606085892e-06
4.73040759994638e-06
4.79376727051357e-06
4.85692673585615e-06
4.91981031350074e-06
4.98234510052042e-06
5.0444610796713e-06
5.10609120540659e-06
5.16717146906897e-06
5.22764094299093e-06
5.28744180379875e-06
5.34651933594729e-06
5.40482191735064e-06
5.46230098966613e-06
5.5189110160369e-06
5.57460942881812e-06
5.62935656922033e-06
5.68311562024019e-06
5.73585253389903e-06
5.7875359535896e-06
5.83813713204004e-06
5.88762984494985e-06
5.93599029980666e-06
5.98319703885935e-06
6.02923083478908e-06
6.07407457735314e-06
6.11771314915341e-06
6.16013328854521e-06
6.20132343746093e-06
6.24127357175484e-06
6.27997501198781e-06
6.31742021367142e-06
6.35360253781354e-06
6.38851600468021e-06
6.42215503537744e-06
6.45451418673817e-06
6.48558788509519e-06
6.51537016420615e-06
6.54385441229311e-06
6.57103313305192e-06
6.59689772550203e-06
6.62143828751185e-06
6.64464344763112e-06
6.66650022944672e-06
6.68699395202393e-06
6.70610816907217e-06
6.72382464830414e-06
6.74012339113651e-06
6.75498269153914e-06
6.76837923162065e-06
6.78028821061034e-06
6.79068350338417e-06
6.79953784453712e-06
6.80682303397605e-06
6.81251015982914e-06
6.81656983409305e-06
6.81897243611531e-06
6.81968835909979e-06
6.81868825553372e-06
6.81594327867407e-06
6.81142531866514e-06
6.80510723308361e-06
6.79696307244609e-06
6.78696830138465e-06
6.77510001586776e-06
6.76133715618436e-06
6.7456607146923e-06
6.7280539368819e-06
6.70850251435318e-06
6.68699476890421e-06
6.66352182795073e-06
6.63807779267323e-06
6.61065990126433e-06
6.58126869011918e-06
6.54990815564699e-06
6.51658591868319e-06
6.48131339249347e-06
6.44410595435319e-06
6.40498311986945e-06
6.36396871866234e-06
6.32109106963239e-06
6.27638315368957e-06
6.22988278158203e-06
6.18163275455468e-06
6.13168101605581e-06
6.08008079336242e-06
6.02689072843023e-06
5.97217499722839e-06
5.91600341630065e-06
5.85845153454538e-06
5.79960070752273e-06
5.7395381511261e-06
5.67835697110722e-06
5.61615616452112e-06
5.55304058861446e-06
5.48912089223421e-06
5.42451340483256e-06
5.35933997883135e-06
5.29372778244065e-06
5.22780904162917e-06
5.16172073131588e-06
5.09560421670987e-06
5.02960484624326e-06
4.96387149818914e-06
4.89855608411549e-06
4.83381301358935e-06
4.76979862555172e-06
4.70667059227132e-06
4.64458730180807e-06
4.58370722461821e-06
4.52418826938433e-06
4.46618713244968e-06
4.40985864456146e-06
4.35535511814163e-06
4.30282569797892e-06
4.25241571791565e-06
4.20426606570114e-06
4.15851255778492e-06
4.11528532559119e-06
4.07470821486955e-06
4.03689820007342e-06
4.00196481630843e-06
3.97000961209962e-06
3.94112562689442e-06
3.91539689767607e-06
3.8928979991713e-06
3.87369362187684e-06
3.85783819160807e-06
3.84537553366084e-06
3.836338584103e-06
3.83074915021006e-06
3.82861772159933e-06
3.82994333319574e-06
3.83471348081194e-06
3.84290408982762e-06
3.85447953711412e-06
3.86939272591587e-06
3.88758521296962e-06
3.90898738689072e-06
3.93351869683485e-06
3.96108793051041e-06
3.99159354056343e-06
4.02492401810067e-06
4.06095831176184e-06
4.09956629049166e-06
4.14060924809864e-06
4.18394044773161e-06
4.22940570437684e-06
4.27684400328386e-06
4.3260881519083e-06
4.37696546258105e-06
4.42929846267027e-06
4.48290562846041e-06
4.53760213835204e-06
4.59320064035988e-06
4.64951202831537e-06
4.70634622067919e-06
4.76351293543719e-06
4.82082245424007e-06
4.87808636889664e-06
4.9351183037067e-06
4.99173460792451e-06
5.04775501361654e-06
5.1030032549763e-06
5.15730764571486e-06
5.21050161174608e-06
5.26242417733267e-06
5.31292040409917e-06
5.36184178349815e-06
5.40904658410973e-06
5.45440015544164e-06
5.49777518976236e-06
5.53905194319456e-06
5.57811841713816e-06
5.61487050127551e-06
5.64921207988106e-06
5.68105510368668e-06
5.71031962990903e-06
5.73693383310574e-06
5.76083398929463e-06
5.7819644353333e-06
5.80027750501193e-06
5.81573344270958e-06
5.82830029482117e-06
5.83795377857614e-06
5.84467712756012e-06
5.84846091345163e-06
5.849302844286e-06
5.84720754078597e-06
5.84218629354022e-06
5.83425680466221e-06
5.8234429179593e-06
5.80977434187628e-06
5.79328636981328e-06
5.77401960280328e-06
5.75201967969371e-06
5.72733701972789e-06
5.70002658182535e-06
5.67014764409684e-06
5.63776360629528e-06
5.60294181698984e-06
5.56575342627899e-06
5.52627326395459e-06
5.48457974233298e-06
5.44075478251889e-06
5.39488376256041e-06
5.34705548565679e-06
5.29736216628715e-06
5.2458994319142e-06
5.19276633776251e-06
5.13806539192308e-06
5.08190258758126e-06
5.02438743852722e-06
4.96563301342825e-06
4.90575596382741e-06
4.84487654066798e-06
4.78311859431626e-06
4.72060955332555e-06
4.65748037734837e-06
4.59386547975943e-06
4.52990261602028e-06
4.46573273480512e-06
4.40149979027943e-06
4.33735051527956e-06
4.27343415614769e-06
4.20990217063674e-06
4.14690789086608e-06
4.08460615391382e-06
4.02315290311695e-06
3.96270476328865e-06
3.90341859280599e-06
3.84545101501894e-06
3.78895793088256e-06
3.73409401428102e-06
3.68101219132869e-06
3.62986310509596e-06
3.58079456767387e-06
3.53395100205592e-06
3.48947287676099e-06
3.4474961363688e-06
3.40815163121426e-06
3.37156454942994e-06
3.33785385438313e-06
3.30713173038267e-06
3.27950303940704e-06
3.25506479163081e-06
3.23390563276657e-06
3.2161053516277e-06
3.20173441164074e-06
3.1908535100909e-06
3.18351316863763e-06
3.1797533582303e-06
3.17960316116093e-06
3.18308047269779e-06
3.19019174454183e-06
3.2009317721751e-06
3.21528352796335e-06
3.23321804160732e-06
3.2546943292215e-06
3.27965937196949e-06
3.30804814480011e-06
3.33978369542283e-06
3.37477727325639e-06
3.41292850768705e-06
3.45412563460954e-06
3.49824576999031e-06
3.54515522920501e-06
3.59470989117218e-06
3.64675560670084e-06
3.70112865079028e-06
3.75765621870667e-06
3.81615696547823e-06
3.87644158809569e-06
3.93831344933816e-06
4.00156924190563e-06
4.06599969147456e-06
4.13139029732074e-06
4.19752210908558e-06
4.26417253793946e-06
4.33111619979873e-06
4.3981257874898e-06
4.46497296795798e-06
4.53142929987695e-06
4.59726716635234e-06
4.66226071680031e-06
4.72618681148865e-06
4.78882596168093e-06
4.84996325787582e-06
4.90938927826215e-06
4.96690096915483e-06
5.02230248890118e-06
5.07540600676966e-06
5.12603244875155e-06
5.17401218278626e-06
5.21918563634488e-06
5.26140383963705e-06
5.30052888845346e-06
5.33643432231049e-06
5.36900541604624e-06
5.39813938562363e-06
5.42374551086591e-06
5.44574517902574e-06
5.46407185387797e-06
5.47867097584287e-06
5.4894997995619e-06
5.49652717619649e-06
5.4997332882842e-06
5.4991093451225e-06
5.49465724635438e-06
5.48638922083409e-06
5.47432744714245e-06
5.45850366142203e-06
5.43895875753987e-06
5.41574238396688e-06
5.38891254121505e-06
5.35853518316326e-06
5.32468382500708e-06
5.28743915979032e-06
5.24688868453097e-06
5.20312633593134e-06
5.15625213465607e-06
5.1063718362504e-06
5.05359658600328e-06
4.99804257443311e-06
4.93983068959992e-06
4.87908616227221e-06
4.81593820036599e-06
4.75051961019858e-06
4.6829664038157e-06
4.61341739346635e-06
4.54201377564531e-06
4.46889870772069e-06
4.39421688020329e-06
4.31811408762315e-06
4.24073680106745e-06
4.16223174574323e-06
4.08274548730465e-06
4.00242403091624e-06
3.92141243695798e-06
3.83985445689067e-06
3.7578921921811e-06
3.67566577845014e-06
3.59331309622739e-06
3.51096950892911e-06
3.42876762799575e-06
3.34683710458783e-06
3.26530444684358e-06
3.18429286141059e-06
3.10392211775919e-06
3.02430843366581e-06
2.94556438018438e-06
2.8677988043217e-06
2.79111676745107e-06
2.71561949729451e-06
2.64140435120593e-06
2.56856478857497e-06
2.49719035040623e-06
2.42736664440447e-06
2.35917533416545e-06
2.29269413136868e-06
2.2279967901821e-06
2.16515310331089e-06
2.10422889915845e-06
2.04528603943629e-06
1.9883824163471e-06
1.93357194826234e-06
1.88090457271381e-06
1.83042623558908e-06
1.78217887567367e-06
1.73620040409123e-06
1.6925246787214e-06
1.65118147425339e-06
1.61219644902686e-06
1.57559111008957e-06
1.54138277793691e-06
1.50958455229711e-06
1.48020528023482e-06
1.45324952784298e-06
1.42871755685031e-06
1.40660530751721e-06
1.38690438917581e-06
1.36960207967889e-06
1.35468133487539e-06
1.34212080905847e-06
1.33189488714014e-06
1.32397372908057e-06
1.31832332684077e-06
1.31490557387091e-06
1.31367834694415e-06
1.31459560001422e-06
1.31760746969e-06
1.3226603918577e-06
1.32969722894269e-06
1.33865740728343e-06
1.34947706405093e-06
1.36208920304703e-06
1.3764238585559e-06
1.39240826626492e-06
1.40996704019619e-06
1.42902235463063e-06
1.44949413010782e-06
1.47130022265111e-06
1.49435661536358e-06
1.51857761151778e-06
1.54387602828244e-06
1.57016339027791e-06
1.59735012217168e-06
1.62534573951696e-06
1.65405903708394e-06
1.6833982741132e-06
1.7132713562222e-06
1.74358601403168e-06
1.7742499788446e-06
1.80517115584134e-06
1.83625779525056e-06
1.86741866186477e-06
1.89856320313896e-06
1.92960171596959e-06
1.96044551212309e-06
1.99100708219405e-06
2.02120025793675e-06
2.0509403728266e-06
2.08014442074276e-06
2.10873121267858e-06
2.13662153137503e-06
2.16373828377508e-06
2.19000665125793e-06
2.21535423771085e-06
2.23971121557672e-06
2.26301047005765e-06
2.2851877417035e-06
2.30618176770253e-06
2.32593442229311e-06
2.344390856755e-06
2.36149963935673e-06
2.37721289542343e-06
2.39148644739979e-06
2.40427995448992e-06
2.41555705118749e-06
2.42528548375324e-06
2.43343724343979e-06
2.43998869502318e-06
2.44492069901058e-06
2.44821872579131e-06
2.44987296001817e-06
2.44987839362563e-06
2.44823490601795e-06
2.44494732998248e-06
2.44002550179911e-06
2.4334842939704e-06
2.42534362915108e-06
2.41562847420437e-06
2.40436881367093e-06
2.39159960213637e-06
2.37736069505759e-06
2.36169675775361e-06
2.34465715264706e-06
2.32629580544276e-06
2.30667105155116e-06
2.28584546446409e-06
2.26388566785699e-06
2.24086213299856e-06
2.21684896277474e-06
2.19192366345139e-06
2.16616690529528e-06
2.13966227330478e-06
2.11249600943473e-06
2.08475674771718e-06
2.05653524357593e-06
2.02792409848216e-06
1.99901748096296e-06
1.96991084486746e-06
1.94070064569616e-06
1.91148405567689e-06
1.88235867810013e-06
1.85342226121875e-06
1.82477241180208e-06
1.79650630823326e-06
1.76872041287819e-06
1.74151018335721e-06
1.71496978229999e-06
1.68919178512141e-06
1.66426688535022e-06
1.64028359718835e-06
1.61732795536239e-06
1.59548321289502e-06
1.5748295379915e-06
1.55544371162694e-06
1.5373988275639e-06
1.52076399649591e-06
1.50560405592502e-06
1.49197928734122e-06
1.47994514229813e-06
1.46955197903571e-06
1.46084481133179e-06
1.45386307123993e-06
1.44864038728603e-06
1.44520437956965e-06
1.44357647307642e-06
1.44377173039014e-06
1.44579870491402e-06
1.44965931567476e-06
1.45534874477988e-06
1.46285535859948e-06
1.47216065371052e-06
1.48323922856117e-06
1.49605878172183e-06
1.51058013753039e-06
1.52675729990905e-06
1.54453753508086e-06
1.5638614838046e-06
1.58466330356338e-06
1.60687084090238e-06
1.63040583384207e-06
1.65518414403552e-06
1.68111601813122e-06
1.70810637768229e-06
1.73605513692402e-06
1.76485754779415e-06
1.79440457161118e-06
1.82458327676696e-06
1.85527726160284e-06
1.88636710135667e-06
1.91773081775276e-06
1.94924436951324e-06
1.98078216182362e-06
2.01221757258475e-06
2.04342349311653e-06
2.07427288084929e-06
2.10463932145949e-06
2.1343975978802e-06
2.16342426362748e-06
2.19159821788639e-06
2.21880127976214e-06
2.24491875905122e-06
2.26984002090198e-06
2.29345904184743e-06
2.31567495484177e-06
2.33639258100698e-06
2.3555229457206e-06
2.37298377645649e-06
2.38869997948176e-06
2.40260409217739e-06
2.41463670745457e-06
2.42474686654856e-06
2.43289241640748e-06
2.43904032789217e-06
2.44316697096936e-06
2.44525834298196e-06
2.44531024599474e-06
2.44332840930753e-06
2.43932855366938e-06
2.43333639455263e-06
2.42538758290478e-06
2.41552758281696e-06
2.40381148629656e-06
2.39030376575789e-06
2.37507796512774e-06
2.35821633090969e-06
2.33980938536141e-06
2.31995544502301e-06
2.29876008886518e-06
2.27633558098935e-06
2.25280025303066e-06
2.22827785134626e-06
2.20289685393616e-06
2.17678976196026e-06
2.1500923706844e-06
2.12294302465926e-06
2.09548186187615e-06
2.06785005156181e-06
2.04018903018011e-06
2.01263974009495e-06
1.98534187521999e-06
1.95843313788859e-06
1.93204851116097e-06
1.9063195507933e-06
1.88137370101537e-06
1.85733363804097e-06
1.83431664490062e-06
1.81243402080575e-06
1.79179052787697e-06
1.77248387772621e-06
1.75460426007858e-06
1.73823391533683e-06
1.72344675269335e-06
1.71030801506118e-06
1.69887399173426e-06
1.68919177933104e-06
1.68129909126563e-06
1.67522411576348e-06
1.67098542231387e-06
1.6685919164268e-06
1.66804284259916e-06
1.66932783542765e-06
1.67242701876264e-06
1.67731115264363e-06
1.68394182750499e-06
1.69227170482549e-06
1.70224480305701e-06
1.71379682734506e-06
1.7268555412728e-06
1.74134117862244e-06
1.75716689293931e-06
1.77423924250309e-06
1.79245870818793e-06
1.81172024165422e-06
1.83191384134538e-06
1.85292515379728e-06
1.8746360977252e-06
1.89692550819759e-06
1.91966979797938e-06
1.94274363293054e-06
1.96602061825406e-06
1.98937399239288e-06
2.01267732540554e-06
2.0358052186256e-06
2.05863400229728e-06
2.08104242769585e-06
2.10291235002866e-06
2.12412939822116e-06
2.14458362758352e-06
2.16417015138618e-06
2.18278974755302e-06
2.20034943692608e-06
2.21676302976437e-06
2.23195163730991e-06
2.24584414545958e-06
2.25837764781724e-06
2.26949783554873e-06
2.27915934145165e-06
2.2873260355695e-06
2.29397126968571e-06
2.29907806820327e-06
2.30263926319687e-06
2.30465757168791e-06
2.30514561335807e-06
2.30412586705985e-06
2.30163056480287e-06
2.29770152254078e-06
2.29238990802252e-06
2.28575594700634e-06
2.2778685700273e-06
2.268805002557e-06
2.25865030190676e-06
2.24749684478233e-06
2.2354437700616e-06
2.22259638203584e-06
2.20906551987441e-06
2.19496689934098e-06
2.18042043279802e-06
2.16554953334244e-06
2.15048040860398e-06
2.13534134938661e-06
2.12026201798679e-06
2.10537274067625e-06
2.0908038084869e-06
2.07668479010367e-06
2.06314386037789e-06
2.05030714769341e-06
2.03829810310549e-06
2.02723689381552e-06
2.01723982316274e-06
2.00841877892975e-06
2.00088071138254e-06
1.99472714212151e-06
1.99005370456145e-06
1.98694971675827e-06
1.98549778738213e-06
1.98577345582245e-06
1.9878448675445e-06
1.99177248578425e-06
1.99760884046365e-06
2.00539831490722e-06
2.01517697061324e-06
2.02697241001537e-06
2.04080367687589e-06
2.05668119368944e-06
2.0746067352658e-06
2.09457343753143e-06
2.11656584055162e-06
2.14055996483488e-06
2.1665234201689e-06
2.19441554655996e-06
2.22418758720839e-06
2.25578289368443e-06
2.289137163477e-06
2.32417870991837e-06
2.36082876422992e-06
2.39900180911438e-06
2.43860594293279e-06
2.47954327307691e-06
2.52171033675519e-06
2.56499854713129e-06
2.60929466264365e-06
2.65448127739363e-06
2.70043733065353e-06
2.74703863371088e-06
2.79415841235164e-06
2.8416678632791e-06
2.88943672268712e-06
2.9373338450547e-06
2.98522778996398e-06
3.03298741434063e-06
3.08048246701093e-06
3.12758418194235e-06
3.174165866071e-06
3.22010347730147e-06
3.26527618812576e-06
3.30956693028274e-06
3.35286291588836e-06
3.39505613056453e-06
3.43604379443807e-06
3.47572878751903e-06
3.51402003675229e-06
3.55083286271896e-06
3.58608928435099e-06
3.6197182800944e-06
3.65165600392991e-06
3.68184595486327e-06
3.71023909913377e-06
3.73679394539065e-06
3.76147657419769e-06
3.78426062418053e-06
3.80512723777067e-06
3.82406496976358e-06
3.84106966180383e-06
3.85614428552037e-06
3.86929875656299e-06
3.88054972149086e-06
3.88992031947715e-06
3.89743992102474e-06
3.9031438460929e-06
3.90707306402353e-06
3.90927387742592e-06
3.90979759192441e-06
3.90870017366563e-06
3.90604189689305e-06
3.90188698465793e-06
3.89630324656945e-06
3.88936171806938e-06
3.88113630586591e-06
3.87170344390841e-06
3.86114176377879e-06
3.84953178275382e-06
3.83695561214573e-06
3.82349668793914e-06
3.80923952526351e-06
3.79426949786555e-06
3.77867264342775e-06
3.76253549527879e-06
3.74594494073013e-06
3.7289881059041e-06
3.7117522664621e-06
3.69432478314216e-06
3.67679306057089e-06
3.65924452747106e-06
3.64176663608192e-06
3.62444687824352e-06
3.60737281513067e-06
3.59063211708239e-06
3.57431260943572e-06
3.55850231984924e-06
3.54328952236269e-06
3.528762773326e-06
3.51501093423077e-06
3.50212317644035e-06
3.49018896306506e-06
3.47929800390416e-06
3.46954018030416e-06
3.46100543761423e-06
3.45378364348216e-06
3.44796441068592e-06
3.44363688379319e-06
3.44088948974326e-06
3.43980965325783e-06
3.44048347855363e-06
3.44299539903483e-06
3.44742779658354e-06
3.45386059195937e-06
3.46237080788517e-06
3.47303210678973e-06
3.48591430589134e-06
3.50108287309232e-06
3.51859840767313e-06
3.53851610988425e-06
3.56088524342719e-06
3.58574859486462e-06
3.6131419344639e-06
3.64309348381431e-06
3.67562339646326e-06
3.71074325846046e-06
3.74845561593725e-06
3.78875353671922e-06
3.83162021257519e-06
3.87702860813946e-06
3.92494116188158e-06
3.97530954379713e-06
4.02807447381579e-06
4.08316560436007e-06
4.14050147012293e-06
4.19998950794221e-06
4.26152614948398e-06
4.32499698912254e-06
4.39027702882969e-06
4.45723100108845e-06
4.52571376991616e-06
4.59557080911362e-06
4.66663875594118e-06
4.73874603764707e-06
4.81171356766296e-06
4.88535550776666e-06
4.9594800919778e-06
5.03389050736391e-06
5.10838582637195e-06
5.18276198488852e-06
5.2568128000183e-06
5.33033102146725e-06
5.40310941023259e-06
5.47494183789423e-06
5.5456243992184e-06
5.61495653023007e-06
5.68274212359774e-06
5.74879063316352e-06
5.81291815960111e-06
5.87494850926412e-06
5.93471421823283e-06
5.99205753358571e-06
6.04683134431886e-06
6.09890005525301e-06
6.14814039851526e-06
6.19444217831466e-06
6.23770894537309e-06
6.27785859753885e-06
6.3148239030888e-06
6.3485529432314e-06
6.37900947038793e-06
6.40617317892358e-06
6.43003988511076e-06
6.45062161322272e-06
6.46794658475553e-06
6.48205910789494e-06
6.49301936469016e-06
6.50090309432017e-06
6.50580117246616e-06
6.50781908875612e-06
6.50707632585496e-06
6.50370564461755e-06
6.49785227994179e-06
6.48967305210677e-06
6.47933539899951e-06
6.46701633587227e-06
6.45290135085702e-06
6.4371832459638e-06
6.42006093439043e-06
6.40173820553606e-06
6.38242246912883e-06
6.36232348943559e-06
6.34165211980382e-06
6.32061904698366e-06
6.29943355386883e-06
6.27830230844858e-06
6.25742818585118e-06
6.23700912940967e-06
6.21723705581657e-06
6.19829680886375e-06
6.18036516618573e-06
6.16360990388451e-06
6.14818892475736e-06
6.13424945674133e-06
6.12192732873005e-06
6.11134633083474e-06
6.10261766544555e-06
6.09583949431641e-06
6.09109658562947e-06
6.08846006382416e-06
6.08798726401989e-06
6.08972169208504e-06
6.09369309064899e-06
6.09991761046437e-06
6.10839808545489e-06
6.11912440858121e-06
6.13207400439258e-06
6.14721239287879e-06
6.16449383809778e-06
6.18386207416916e-06
6.20525110067534e-06
6.22858603923475e-06
6.25378404278956e-06
6.28075524875087e-06
6.30940376651242e-06
6.33962868917536e-06
6.37132511888144e-06
6.40438519494807e-06
6.43869911380678e-06
6.47415612944457e-06
6.51064552294249e-06
6.54805753035432e-06
6.58628421987002e-06
6.62522031166253e-06
6.66476393625218e-06
6.70481732887876e-06
6.74528745797185e-06
6.78608658568091e-06
6.8271327581274e-06
6.86835022290124e-06
6.90966977134264e-06
6.95102900324501e-06
6.99237251180398e-06
7.03365198700085e-06
7.07482623620096e-06
7.11586112158623e-06
7.1567294150611e-06
7.19741057224546e-06
7.23789042778651e-06
7.27816081438925e-06
7.31821910805576e-06
7.35806770268279e-06
7.39771341879062e-06
7.43716685354412e-06
7.47644168170188e-06
7.51555391896552e-06
7.55452116005144e-06
7.59336180386517e-06
7.63209427787193e-06
7.67073627339882e-06
7.70930400316768e-06
7.74781149172703e-06
7.78626990853765e-06
7.82468695226291e-06
7.86306629346513e-06
7.90140708167005e-06
7.93970352181809e-06
7.9779445244493e-06
8.01611343341921e-06
8.05418783437e-06
8.09213944645474e-06
8.12993409882408e-06
8.16753179212425e-06
8.20488684382379e-06
8.24194811469175e-06
8.27865931224316e-06
8.31495936548716e-06
8.35078286395883e-06
8.386060552944e-06
8.42071987617732e-06
8.45468555719946e-06
8.48788021088093e-06
8.52022497697645e-06
8.55164016761741e-06
8.58204592043267e-06
8.61136284887554e-06
8.63951268153954e-06
8.6664188825807e-06
8.69200724546104e-06
8.71620645195764e-06
8.7389485880957e-06
8.76016960899256e-06
8.77980974595446e-06
8.79781385141392e-06
8.81413167984715e-06
8.82871810496829e-06
8.84153327484074e-06
8.85254270720923e-06
8.86171732792034e-06
8.86903345626871e-06
8.87447274248492e-06
8.8780220639284e-06
8.87967338736582e-06
8.87942360474234e-06
8.87727434915504e-06
8.87323179660617e-06
8.86730645787894e-06
8.85951296373038e-06
8.8498698455789e-06
8.83839931302628e-06
8.82512702899509e-06
8.8100818830604e-06
8.79329576371511e-06
8.77480333076375e-06
8.75464178958564e-06
8.73285066931923e-06
8.7094716068543e-06
8.68454813792075e-06
8.65812549581344e-06
8.63025041767511e-06
8.60097095790225e-06
8.57033630817208e-06
8.53839662385948e-06
8.50520285726813e-06
8.47080659901263e-06
8.43525992967349e-06
8.39861528408579e-06
8.36092533023146e-06
8.32224286407384e-06
8.28262072131526e-06
8.24211170709811e-06
8.20076854473503e-06
8.15864384421976e-06
8.11579009050965e-06
8.07225965071368e-06
8.02810479865676e-06
7.98337775479841e-06
7.93813073892428e-06
7.89241603223146e-06
7.84628604441784e-06
7.7997933803936e-06
7.75299090071496e-06
7.70593177029053e-06
7.65866949140221e-06
7.61125791903596e-06
7.56375125816878e-06
7.51620404374834e-06
7.46867110493983e-06
7.42120751608872e-06
7.37386853764711e-06
7.32670955075019e-06
7.27978598914939e-06
7.23315327203881e-06
7.18686674120275e-06
7.14098160589988e-06
7.09555289881754e-06
7.05063544614639e-06
7.00628385436055e-06
6.9625525156915e-06
6.91949563351204e-06
6.87716726787286e-06
6.83562140043918e-06
6.7949120174357e-06
6.75509320922233e-06
6.71621928570187e-06
6.67834490744099e-06
6.64152523267211e-06
6.60581608006313e-06
6.57127410650251e-06
6.53795699852268e-06
6.50592367558963e-06
6.47523450321274e-06
6.44595151339809e-06
6.41813862921627e-06
6.39186188925028e-06
6.36718966658814e-06
6.34419287592929e-06
6.3229451613471e-06
6.30352305644689e-06
6.28600610842559e-06
6.27047695827011e-06
6.25702137110096e-06
6.24572821298468e-06
6.2366893726294e-06
6.22999962770249e-06
6.22575645602954e-06
6.22405979193431e-06
6.2250117277703e-06
6.22871616052515e-06
6.23527838354081e-06
6.2448046241389e-06
6.2574015291721e-06
6.27317560171431e-06
6.29223259273619e-06
6.31467685166879e-06
6.3406106396999e-06
6.37013340990613e-06
6.40334105891003e-06
6.44032515540955e-06
6.48117215147295e-06
6.52596258288327e-06
6.57477026506801e-06
6.62766149132279e-06
6.68469424018475e-06
6.74591739885366e-06
6.81137000934712e-06
6.88108054361372e-06
6.95506621333362e-06
7.03333231981873e-06
7.11587164922648e-06
7.20266391800551e-06
7.29367527305436e-06
7.38885785065131e-06
7.48814939788446e-06
7.59147295994707e-06
7.69873663613966e-06
7.80983340683834e-06
7.92464103330224e-06
8.04302203208208e-06
8.16482372568992e-06
8.28987837073317e-06
8.41800336382696e-06
8.54900152460199e-06
8.68266145447427e-06
8.81875796972068e-06
8.95705260750706e-06
9.09729420332055e-06
9.23921953757124e-06
9.38255404827547e-06
9.52701260615418e-06
9.67230034827957e-06
9.81811356638285e-06
9.96414064593357e-06
1.01100630521095e-05
1.02555563587822e-05
1.04002913165278e-05
1.05439349554496e-05
1.06861517186445e-05
1.08266046230144e-05
1.09649564458199e-05
1.11008709371405e-05
1.12340140592787e-05
1.13640552537343e-05
1.149066873498e-05
1.16135348083433e-05
1.17323412071439e-05
1.18467844419812e-05
1.19565711527811e-05
1.20614194520185e-05
1.21610602456927e-05
1.22552385175238e-05
1.23437145615429e-05
1.24262651485033e-05
1.25026846122707e-05
1.2572785843836e-05
1.26364011828403e-05
1.26933831988657e-05
1.2743605356771e-05
1.27869625622056e-05
1.28233715854631e-05
1.28527713639153e-05
1.28751231850176e-05
1.28904107531155e-05
1.28986401440438e-05
1.2899839651896e-05
1.28940595325022e-05
1.28813716485066e-05
1.28618690218427e-05
1.28356653009024e-05
1.2802894151295e-05
1.27637085800333e-05
1.27182802027334e-05
1.26667984620734e-05
1.26094698039495e-05
1.25465168162381e-05
1.24781773342552e-05
1.24047035168734e-05
1.23263608973173e-05
1.2243427412318e-05
1.21561924122577e-05
1.2064955653305e-05
1.19700262706269e-05
1.18717217300843e-05
1.17703667551179e-05
1.16662922263971e-05
1.15598340539924e-05
1.1451332024202e-05
1.13411286246303e-05
1.12295678514844e-05
1.11169940029207e-05
1.10037504622091e-05
1.08901784747363e-05
1.07766159235382e-05
1.06633961091727e-05
1.05508465410754e-05
1.04392877486171e-05
1.03290321205313e-05
1.02203827812283e-05
1.01136325120958e-05
1.00090627255053e-05
9.90694249875177e-06
9.80752767423545e-06
9.71106003077842e-06
9.61776652941379e-06
9.52785863577867e-06
9.44153172067829e-06
9.3589645403139e-06
9.28031879760682e-06
9.20573878562445e-06
9.13535111338974e-06
9.06926451377419e-06
9.00756973310319e-06
8.95033950242977e-06
8.897628590634e-06
8.84947393913501e-06
8.80589487709545e-06
8.76689341495014e-06
8.73245461319743e-06
8.70254702260522e-06
8.67712319115906e-06
8.65612023232098e-06
8.63946044874648e-06
8.62705200555884e-06
8.61878964733262e-06
8.61455545284367e-06
8.6142196213745e-06
8.61764128406851e-06
8.62466933379947e-06
8.63514326759444e-06
8.64889403687242e-06
8.6657449022327e-06
8.68551229064851e-06
8.70800665343278e-06
8.73303332358605e-06
8.76039337171365e-06
8.78988446079707e-06
8.82130170124601e-06
8.85443850815862e-06
8.88908746228177e-06
8.92504117502743e-06
8.96209315650416e-06
9.0000386841112e-06
9.03867566779711e-06
9.07780550652296e-06
9.11723392884523e-06
9.15677180912503e-06
9.19623595020652e-06
9.23544982402199e-06
9.27424426349893e-06
9.31245810166208e-06
9.34993875599044e-06
9.38654275739872e-06
9.42213622383247e-06
9.45659527893082e-06
9.48980641687838e-06
9.52166681526546e-06
9.55208459805987e-06
9.58097905063004e-06
9.60828078871252e-06
9.63393188380417e-06
9.65788594843709e-06
9.68010818534729e-06
9.70057540409498e-06
9.71927600732158e-06
9.73620994698791e-06
9.75138864906219e-06
9.7648349035529e-06
9.77658271578273e-06
9.78667711446262e-06
9.79517391221499e-06
9.80213941430808e-06
9.80765007137318e-06
9.8117920721781e-06
9.81466087369258e-06
9.81636066787029e-06
9.8170037873017e-06
9.81671005430251e-06
9.81560607944891e-06
9.81382451602783e-06
9.81150327673434e-06
9.80878471856558e-06
9.80581480137167e-06
9.80274222492451e-06
9.79971754860233e-06
9.79689229697709e-06
9.79441805407389e-06
9.79244554907749e-06
9.79112373656294e-06
9.79059887439879e-06
9.79101360198787e-06
9.79250602068762e-06
9.79520877777217e-06
9.7992481558397e-06
9.80474317118173e-06
9.81180468653564e-06
9.82053454489268e-06
9.83102473136429e-06
9.84335656991294e-06
9.85759996144898e-06
9.87381266955936e-06
9.89203966006167e-06
9.91231250066008e-06
9.9346488269719e-06
9.95905188074932e-06
9.98551012518762e-06
1.00139969412047e-05
1.00444704080601e-05
1.00768731717991e-05
1.01111324053046e-05
1.0147159863621e-05
1.01848520375092e-05
1.02240904071927e-05
1.0264741797307e-05
1.03066588331919e-05
1.03496804976537e-05
1.03936327861312e-05
1.04383294571462e-05
1.04835728743621e-05
1.05291549365805e-05
1.05748580922694e-05
1.06204564354831e-05
1.0665716880199e-05
1.07104004100687e-05
1.07542634001335e-05
1.07970590060848e-05
1.08385386153581e-05
1.0878453353058e-05
1.09165556345366e-05
1.09526007554467e-05
1.09863485093173e-05
1.10175648221194e-05
1.10460233926829e-05
1.10715073269063e-05
1.10938107523447e-05
1.11127403981172e-05
1.11281171235253e-05
1.11397773777899e-05
1.11475745732532e-05
1.11513803551316e-05
1.11510857519153e-05
1.11466021914514e-05
1.11378623691217e-05
1.11248209572581e-05
1.11074551491123e-05
1.10857650352379e-05
1.10597738135614e-05
1.10295278360347e-05
1.09950964950045e-05
1.09565719523784e-05
1.09140687152482e-05
1.08677230630759e-05
1.08176923332561e-05
1.07641540728942e-05
1.07073050645519e-05
1.06473602329882e-05
1.05845514394246e-05
1.05191261699676e-05
1.0451346125265e-05
1.0381485718791e-05
1.03098304912628e-05
1.02366754489913e-05
1.01623233349732e-05
1.0087082843462e-05
1.00112667912205e-05
9.93519026081932e-06
9.85916873245629e-06
9.78351622063719e-06
9.70854343094757e-06
9.63455595048921e-06
9.56185248367433e-06
9.49072314318129e-06
9.42144780426752e-06
9.35429452976972e-06
9.28951807337247e-06
9.22735846992776e-06
9.16803972295758e-06
9.11176860005549e-06
9.05873354635523e-06
9.00910372486252e-06
8.9630281908002e-06
8.92063520556352e-06
8.88203169454724e-06
8.8473028520251e-06
8.8165118953889e-06
8.7896999701962e-06
8.76688620639707e-06
8.74806792473544e-06
8.73322099073458e-06
8.7223003120131e-06
8.71524047307368e-06
8.71195650029071e-06
8.71234474871276e-06
8.71628390155186e-06
8.72363607275407e-06
8.73424800255265e-06
8.7479523351253e-06
8.76456896635904e-06
8.78390644845077e-06
8.80576343696572e-06
8.82993016541392e-06
8.8561899325497e-06
8.88432058815942e-06
8.91409600357645e-06
8.9452875133395e-06
8.97766531448082e-06
9.01099981023673e-06
9.04506288585705e-06
9.07962910585818e-06
9.11447682434824e-06
9.14938920242e-06
9.18415512848096e-06
9.21857003845708e-06
9.25243663318936e-06
9.28556549058112e-06
9.31777557079164e-06
9.34889461434457e-06
9.37875943530681e-06
9.40721611425059e-06
9.43412009797133e-06
9.45933621444753e-06
9.48273861224816e-06
9.50421063390542e-06
9.52364463314052e-06
9.54094174640925e-06
9.55601162983605e-06
9.56877217291425e-06
9.57914920016115e-06
9.58707617128572e-06
9.59249388953024e-06
9.59535022677199e-06
9.59559987276426e-06
9.59320411472757e-06
9.58813065254041e-06
9.58035345399606e-06
9.56985265376651e-06
9.55661449865035e-06
9.54063134040632e-06
9.52190167617912e-06
9.50043023529936e-06
9.47622810996719e-06
9.44931292587998e-06
9.41970904724615e-06
9.38744780894983e-06
9.35256776704559e-06
9.31511495750152e-06
9.27514315249723e-06
9.23271410389347e-06
9.18789776470686e-06
9.14077248114634e-06
9.09142514935132e-06
9.03995133184972e-06
8.98645532876236e-06
8.93105019830553e-06
8.87385772097451e-06
8.8150083026445e-06
8.7546408138346e-06
8.69290236498077e-06
8.62994801993834e-06
8.56594045154862e-06
8.50104954384666e-06
8.43545194553495e-06
8.36933057902505e-06
8.30287410891215e-06
8.23627637318825e-06
8.16973577967067e-06
8.10345466904506e-06
8.03763864480876e-06
7.97249586940999e-06
7.90823632496251e-06
7.84507103595722e-06
7.78321125048454e-06
7.72286757605369e-06
7.66424906667594e-06
7.60756225963137e-06
7.55301016279063e-06
7.50079119566555e-06
7.45109808896493e-06
7.40411674853474e-06
7.36002509077884e-06
7.31899185826331e-06
7.28117542588565e-06
7.24672260923958e-06
7.21576748745475e-06
7.18843025308451e-06
7.16481610184834e-06
7.14501417517735e-06
7.12909656829585e-06
7.11711741591637e-06
7.109112066773e-06
7.10509635745252e-06
7.10506599532814e-06
7.10899605964528e-06
7.11684062877437e-06
7.12853254034559e-06
7.14398328953472e-06
7.16308306927786e-06
7.18570095468566e-06
7.21168523240573e-06
7.24086387416689e-06
7.27304515229988e-06
7.30801839377321e-06
7.3455548683067e-06
7.38540880545904e-06
7.42731853512886e-06
7.47100774543866e-06
7.51618685129862e-06
7.56255446610137e-06
7.60979896822133e-06
7.65760015350426e-06
7.70563096469782e-06
7.75355928851547e-06
7.80104981050949e-06
7.84776591721474e-06
7.89337163438512e-06
7.93753358975715e-06
7.97992298856848e-06
8.02021758982132e-06
8.05810367086639e-06
8.09327796732064e-06
8.12544957470256e-06
8.1543417974282e-06
8.17969392990841e-06
8.20126295365735e-06
8.21882513406938e-06
8.232177501177e-06
8.24113920003566e-06
8.24555269779648e-06
8.24528483572001e-06
8.24022771563898e-06
8.23029941218242e-06
8.21544450463053e-06
8.19563442539153e-06
8.17086762530674e-06
8.14116955867453e-06
8.10659249254649e-06
8.06721514552157e-06
8.02314216162662e-06
7.97450342576883e-06
7.92145322893519e-06
7.86416929324602e-06
7.80285166833032e-06
7.73772151085148e-06
7.66901975849234e-06
7.59700570875078e-06
7.52195551200918e-06
7.4441605879184e-06
7.36392597434572e-06
7.281568618859e-06
7.1974156236075e-06
7.11180245508863e-06
7.02507113040574e-06
6.9375683912916e-06
6.8496438766291e-06
6.7616483035446e-06
6.67393166629342e-06
6.58684146108046e-06
6.50072094385919e-06
6.41590742736045e-06
6.33273062340212e-06
6.2515110370197e-06
6.17255841994099e-06
6.09617029194468e-06
6.02263053923043e-06
5.95220809892132e-06
5.88515573835457e-06
5.82170893707107e-06
5.76208487847208e-06
5.70648155701952e-06
5.6550770057254e-06
5.6080286476469e-06
5.56547277423976e-06
5.52752415263708e-06
5.49427576306343e-06
5.46579866660382e-06
5.44214200248464e-06
5.42333311299086e-06
5.40937779323181e-06
5.40026066224336e-06
5.39594565135675e-06
5.39637660521887e-06
5.40147799014647e-06
5.41115570360595e-06
5.42529797762337e-06
5.44377636797508e-06
5.46644682022798e-06
5.49315080322306e-06
5.52371650041897e-06
5.55796004940292e-06
5.5956868195514e-06
5.63669271719913e-06
5.68076550695492e-06
5.72768613733182e-06
5.7772300588944e-06
5.82916852368861e-06
5.88326985562271e-06
5.93930068246608e-06
5.99702712102751e-06
6.05621590778356e-06
6.11663546789905e-06
6.17805691655944e-06
6.24025498798191e-06
6.30300888910852e-06
6.36610307634359e-06
6.42932795454581e-06
6.49248049787355e-06
6.55536479219923e-06
6.61779249894303e-06
6.67958324066466e-06
6.74056490978806e-06
6.80057390329076e-06
6.85945528761327e-06
6.91706289893159e-06
6.97325938416725e-06
7.02791618801932e-06
7.08091349130112e-06
7.13214010611163e-06
7.18149333375735e-06
7.22887879159269e-06
7.27421021478459e-06
7.31740923833083e-06
7.35840516365028e-06
7.39713471305946e-06
7.43354177472983e-06
7.46757714028659e-06
7.49919823685738e-06
7.52836885499074e-06
7.55505887356918e-06
7.57924398279367e-06
7.60090540646907e-06
7.62002962495261e-06
7.63660810004677e-06
7.65063700285409e-06
7.66211694546449e-06
7.67105271767212e-06
7.6774530307864e-06
7.68133027168265e-06
7.68270027102577e-06
7.68158208974113e-06
7.67799782725299e-06
7.67197245395029e-06
7.66353366906873e-06
7.652711783988e-06
7.63953962999704e-06
7.6240524888955e-06
7.6062880444047e-06
7.58628635236902e-06
7.56408982815594e-06
7.5397432502665e-06
7.51329377956472e-06
7.48479099345474e-06
7.45428693373951e-06
7.42183616595359e-06
7.38749584695575e-06
7.35132579679562e-06
7.31338857050654e-06
7.27374952542788e-06
7.2324768796351e-06
7.18964175694511e-06
7.14531821409316e-06
7.09958324652436e-06
7.05251677089447e-06
7.00420158429681e-06
6.95472330163957e-06
6.90417027307648e-06
6.85263348319933e-06
6.80020643347424e-06
6.74698500960661e-06
6.6930673361087e-06
6.63855362094119e-06
6.58354599338087e-06
6.52814833814994e-06
6.47246612841903e-06
6.41660625970988e-06
6.36067688609843e-06
6.30478725947973e-06
6.24904757190904e-06
6.19356880006551e-06
6.13846254970376e-06
6.08384089672783e-06
6.0298162205451e-06
5.9765010249971e-06
5.92400774266874e-06
5.87244851969365e-06
5.82193497993692e-06
5.77257796914339e-06
5.7244872808838e-06
5.67777136679278e-06
5.63253703386851e-06
5.58888913176253e-06
5.54693023306811e-06
5.50676030945125e-06
5.46847640599455e-06
5.43217231550662e-06
5.39793825404203e-06
5.3658605386966e-06
5.33602126903366e-06
5.30849801419749e-06
5.28336350855869e-06
5.26068535921892e-06
5.24052576870458e-06
5.22294127578092e-06
5.20798251668819e-06
5.19569400836885e-06
5.18611395452597e-06
5.17927407475546e-06
5.17519945664344e-06
5.17390843064126e-06
5.17541246762969e-06
5.17971609918998e-06
5.18681686061062e-06
5.19670525669857e-06
5.209364750796e-06
5.22477177810649e-06
5.24289578524024e-06
5.26369929839644e-06
5.28713802259345e-06
5.31316097387234e-06
5.34171064560527e-06
5.37272320911356e-06
5.4061287478766e-06
5.44185152376084e-06
5.47981027292067e-06
5.51991852832335e-06
5.56208496525989e-06
5.60621376571868e-06
5.65220499706215e-06
5.69995500003212e-06
5.74935678074406e-06
5.80030040104152e-06
5.85267336147079e-06
5.90636097145124e-06
5.96124670217841e-06
6.01721251926376e-06
6.07413919355072e-06
6.13190658945988e-06
6.19039393061746e-06
6.24948004285747e-06
6.30904357532438e-06
6.36896320130883e-06
6.42911780134039e-06
6.4893866316897e-06
6.54964948172275e-06
6.60978682358836e-06
6.66967995765391e-06
6.72921115702975e-06
6.78826381444387e-06
6.84672259459311e-06
6.90447359482572e-06
6.9614045164953e-06
7.01740484848158e-06
7.07236606321504e-06
7.12618182422801e-06
7.17874820306507e-06
7.22996390265987e-06
7.27973048426805e-06
7.32795259569722e-06
7.37453819958203e-06
7.41939880145738e-06
7.4624496781414e-06
7.50361010730303e-06
7.54280359898268e-06
7.57995812932047e-06
7.61500637603951e-06
7.64788595458351e-06
7.6785396533575e-06
7.70691566625786e-06
7.73296782053088e-06
7.75665579786405e-06
7.7779453463913e-06
7.79680848094815e-06
7.81322366847438e-06
7.82717599492955e-06
7.83865730948363e-06
7.84766634127767e-06
7.85420878407491e-06
7.85829734484771e-06
7.85995175360361e-06
7.85919873309303e-06
7.85607192811981e-06
7.85061179502795e-06
7.8428654527376e-06
7.83288649736478e-06
7.82073478271114e-06
7.80647616873717e-06
7.79018223994257e-06
7.77192999583928e-06
7.75180151645586e-06
7.7298836066057e-06
7.70626742297421e-06
7.68104808778113e-06
7.65432429211201e-06
7.62619789143003e-06
7.59677349558341e-06
7.56615805576161e-06
7.53446045098253e-06
7.50179107650501e-06
7.46826143601938e-06
7.43398373879242e-06
7.3990705024389e-06
7.3636341618523e-06
7.32778668505664e-06
7.29163919720993e-06
7.25530161453468e-06
7.21888229038793e-06
7.18248767577921e-06
7.14622199622397e-06
7.11018694592785e-06
7.0744813992187e-06
7.03920113822554e-06
7.00443859524928e-06
6.97028260805093e-06
6.93681818622751e-06
6.90412628686007e-06
6.87228359782285e-06
6.8413623277639e-06
6.81143000288303e-06
6.78254927203829e-06
6.75477772301886e-06
6.72816771365663e-06
6.70276622159943e-06
6.67861471606145e-06
6.6557490539129e-06
6.63419940134056e-06
6.61399018120402e-06
6.59514004529603e-06
6.57766187018985e-06
6.56156277535378e-06
6.54684416260838e-06
6.53350177648048e-06
6.52152578535737e-06
6.5109008835946e-06
6.5016064149797e-06
6.49361651816365e-06
6.48690029469312e-06
6.48142200007615e-06
6.47714125810812e-06
6.47401329875976e-06
6.47198922032951e-06
6.47101627702021e-06
6.4710381932634e-06
6.47199550582412e-06
6.47382593405653e-06
6.47646477783239e-06
6.479845341777e-06
6.48389938359093e-06
6.48855758340021e-06
6.4937500301984e-06
6.49940672050981e-06
6.5054580635427e-06
6.51183538653651e-06
6.51847143390644e-06
6.52530085419748e-06
6.53226066971761e-06
6.53929072488245e-06
6.54633411050637e-06
6.55333756216791e-06
6.56025183110502e-06
6.5670320259096e-06
6.57363792294592e-06
6.58003424333608e-06
6.5861908947597e-06
6.59208317711515e-06
6.59769195197685e-06
6.60300377646962e-06
6.60801100261385e-06
6.61271184352848e-06
6.61711040822204e-06
6.62121670694072e-06
6.62504662900724e-06
6.62862189479106e-06
6.63196998303985e-06
6.63512403428449e-06
6.63812273027588e-06
6.64101014838777e-06
6.6438355888534e-06
6.6466533720121e-06
6.64952260279713e-06
6.65250690055176e-06
6.6556740935528e-06
6.65909587882051e-06
6.66284744868695e-06
6.66700708646331e-06
6.67165573472851e-06
6.67687654108933e-06
6.68275438716262e-06
6.68937540666609e-06
6.69682649809798e-06
6.70519483698145e-06
6.7145673922816e-06
6.7250304513734e-06
6.73666915777087e-06
6.74956706558286e-06
6.76380571412771e-06
6.77946422521053e-06
6.79661892435276e-06
6.81534298600463e-06
6.83570610169635e-06
6.85777416932366e-06
6.88160900129692e-06
6.90726804899384e-06
6.93480414083426e-06
6.96426523154868e-06
6.99569416104218e-06
7.02912842260572e-06
7.06459994179995e-06
7.10213486876165e-06
7.14175338762422e-06
7.18346954701537e-06
7.22729111528993e-06
7.27321946358551e-06
7.32124947923604e-06
7.37136951162365e-06
7.42356135208353e-06
7.47780024884822e-06
7.53405495717146e-06
7.59228782378448e-06
7.65245490385295e-06
7.71450610780627e-06
7.77838537503233e-06
7.84403087165844e-06
7.91137521045632e-06
7.98034569202318e-06
8.05086456733487e-06
8.12284932212821e-06
8.19621298319021e-06
8.27086444566171e-06
8.34670881923998e-06
8.42364778999108e-06
8.50157999351856e-06
8.58040139456616e-06
8.66000566786036e-06
8.74028457517787e-06
8.82112833410499e-06
8.90242597442259e-06
8.98406567821727e-06
9.06593509962761e-06
9.14792165976013e-06
9.22991281201788e-06
9.31179627300785e-06
9.39346021425462e-06
9.47479341010313e-06
9.55568533767593e-06
9.63602622594358e-06
9.7157070530563e-06
9.79461949384131e-06
9.87265582211302e-06
9.94970877437819e-06
1.00256713823484e-05
1.01004367818026e-05
1.01738980053741e-05
1.02459477670537e-05
1.03164782464748e-05
1.03853808810123e-05
1.04525461730483e-05
1.05178635184759e-05
1.05812210610318e-05
