Elapsed Time,Ch1,Ch2,BioRadio Event,
00:00:00,-0.00111988931894302,0.00283900648355484,0,
00:00:00.001,-0.00112780183553696,0.00283084809780121,0,
00:00:00.002,-0.00112950056791306,0.00282309204339981,0,
00:00:00.003,-0.00111515074968338,0.00281486660242081,0,
00:00:00.004,-0.00111045688390732,0.0028151348233223,0,
00:00:00.005,-0.00111284852027893,0.00282177329063416,0,
00:00:00.006,-0.001105897128582,0.00283442437648773,0,
00:00:00.007,-0.00110198557376862,0.0028495118021965,0,
00:00:00.008,-0.00110761821269989,0.00286059826612473,0,
00:00:00.009,-0.0011141449213028,0.00286965072154999,0,
00:00:00.01,-0.00111604481935501,0.00287937372922897,0,
00:00:00.011,-0.00111575424671173,0.00288402289152145,0,
00:00:00.012,-0.00111968815326691,0.00287845730781555,0,
00:00:00.013,-0.00112245976924896,0.0028730034828186,0,
00:00:00.014,-0.00112476199865341,0.00285854190587997,0,
00:00:00.015,-0.00113651901483536,0.002853624522686,0,
00:00:00.016,-0.00114501267671585,0.00285369157791138,0,
00:00:00.017,-0.00114425271749496,0.00284736603498459,0,
00:00:00.018,-0.001141257584095,0.00283384323120117,0,
00:00:00.019,-0.00113551318645477,0.00282785296440125,0,
00:00:00.02,-0.00112800300121307,0.0028267577290535,0,
00:00:00.021,-0.00112375617027283,0.00282959640026093,0,
00:00:00.022,-0.0011245384812355,0.00283773243427277,0,
00:00:00.023,-0.0011228621006012,0.00284794718027115,0,
00:00:00.024,-0.00111939758062363,0.00286824256181717,0,
00:00:00.025,-0.00111863762140274,0.00289160013198853,0,
00:00:00.026,-0.00111906230449677,0.00289198011159897,0,
00:00:00.027,-0.00112371146678925,0.00287604331970215,0,
00:00:00.028,-0.00112751126289368,0.00286808609962463,0,
00:00:00.029,-0.00112836062908173,0.00286893546581268,0,
00:00:00.03,-0.00113370269536972,0.00287242233753204,0,
00:00:00.031,-0.001142218708992,0.00287260115146637,0,
00:00:00.032,-0.0011504665017128,0.00286944955587387,0,
00:00:00.033,-0.00114724785089493,0.00286766141653061,0,
00:00:00.034,-0.00113292038440704,0.00286547094583511,0,
00:00:00.035,-0.0011272206902504,0.00286294519901276,0,
00:00:00.036,-0.00112590193748474,0.00286569446325302,0,
00:00:00.037,-0.00111711770296097,0.00286947190761566,0,
00:00:00.038,-0.00111293792724609,0.00287161767482758,0,
00:00:00.039,-0.00110860168933868,0.0028700977563858,0,
00:00:00.04,-0.00112044811248779,0.0028669461607933,0,
00:00:00.041,-0.00112789124250412,0.00285744667053223,0,
00:00:00.042,-0.00112900882959366,0.00284745544195175,0,
00:00:00.043,-0.00113799422979355,0.0028386265039444,0,
00:00:00.044,-0.00114756077528,0.00283460319042206,0,
00:00:00.045,-0.00115410983562469,0.00283871591091156,0,
00:00:00.046,-0.00115169584751129,0.00284376740455627,0,
00:00:00.047,-0.00114483386278152,0.00284783542156219,0,
00:00:00.048,-0.00113824009895325,0.00285579264163971,0,
00:00:00.049,-0.00113683193922043,0.00286681205034256,0,
00:00:00.05,-0.00113888829946518,0.00288107246160507,0,
00:00:00.051,-0.0011434480547905,0.00287850201129913,0,
00:00:00.052,-0.00114409625530243,0.00286826491355896,0,
00:00:00.053,-0.00113164633512497,0.00286397337913513,0,
00:00:00.054,-0.00111888349056244,0.00285682082176209,0,
00:00:00.055,-0.00111253559589386,0.00285246223211288,0,
00:00:00.056,-0.00110681354999542,0.00284081697463989,0,
00:00:00.057,-0.00110223144292831,0.00282534956932068,0,
00:00:00.058,-0.00109793990850449,0.00282134860754013,0,
00:00:00.059,-0.0011020302772522,0.0028270035982132,0,
00:00:00.06,-0.00110902637243271,0.00283708423376083,0,
00:00:00.061,-0.00110895931720734,0.00284750014543533,0,
00:00:00.062,-0.00110632181167603,0.00285635143518448,0,
00:00:00.063,-0.001106858253479,0.00288042426109314,0,
00:00:00.064,-0.00110688060522079,0.00290771573781967,0,
00:00:00.065,-0.00110705941915512,0.00290190428495407,0,
00:00:00.066,-0.00110650062561035,0.00288417935371399,0,
00:00:00.067,-0.00110460072755814,0.00287159532308578,0,
00:00:00.068,-0.00110817700624466,0.00286866724491119,0,
00:00:00.069,-0.00111984461545944,0.00286940485239029,0,
00:00:00.07,-0.00113283097743988,0.00286891311407089,0,
00:00:00.071,-0.00113864243030548,0.00286998599767685,0,
00:00:00.072,-0.0011398047208786,0.00286625325679779,0,
00:00:00.073,-0.00113710016012192,0.00285563617944717,0,
00:00:00.074,-0.0011318027973175,0.00284747779369354,0,
00:00:00.075,-0.00112907588481903,0.00284785777330399,0,
00:00:00.076,-0.00112990289926529,0.00285293161869049,0,
00:00:00.077,-0.0011289194226265,0.00285959243774414,0,
00:00:00.078,-0.00112764537334442,0.00286500155925751,0,
00:00:00.079,-0.00113151222467422,0.00286855548620224,0,
00:00:00.08,-0.00112822651863098,0.00286298990249634,0,
00:00:00.081,-0.00112639367580414,0.00285771489143372,0,
00:00:00.082,-0.00113365799188614,0.00284942239522934,0,
00:00:00.083,-0.0011361837387085,0.00284057110548019,0,
00:00:00.084,-0.00113102048635483,0.00283471494913101,0,
00:00:00.085,-0.00112304091453552,0.00283469259738922,0,
00:00:00.086,-0.00111148506402969,0.00284332036972046,0,
00:00:00.087,-0.00109273195266724,0.0028546079993248,0,
00:00:00.088,-0.00108475238084793,0.00286260992288589,0,
00:00:00.089,-0.00109516829252243,0.00286439806222916,0,
00:00:00.09,-0.00111047923564911,0.00286947190761566,0,
00:00:00.091,-0.00111745297908783,0.00286826491355896,0,
00:00:00.092,-0.00112080574035645,0.00286723673343658,0,
00:00:00.093,-0.00112306326627731,0.00286560505628586,0,
00:00:00.094,-0.00111242383718491,0.00286495685577393,0,
00:00:00.095,-0.00110844522714615,0.00286486744880676,0,
00:00:00.096,-0.00111624598503113,0.00286960601806641,0,
00:00:00.097,-0.00111939758062363,0.00287490338087082,0,
00:00:00.098,-0.001119464635849,0.00285717844963074,0,
00:00:00.099,-0.00112006813287735,0.0028376430273056,0,
00:00:00.1,-0.00112109631299973,0.00283040106296539,0,
00:00:00.101,-0.00112129747867584,0.00283069163560867,0,
00:00:00.102,-0.00111986696720123,0.00283145159482956,0,
00:00:00.103,-0.00111863762140274,0.00284068286418915,0,
00:00:00.104,-0.00112525373697281,0.00285429507493973,0,
00:00:00.105,-0.0011364072561264,0.00286421924829483,0,
00:00:00.106,-0.00113660842180252,0.00287539511919022,0,
00:00:00.107,-0.0011327862739563,0.00287651270627975,0,
00:00:00.108,-0.00113072991371155,0.00287814438343048,0,
00:00:00.109,-0.00112596899271011,0.0028773620724678,0,
00:00:00.11,-0.00112469494342804,0.00287338346242905,0,
00:00:00.111,-0.00112637132406235,0.00286868959665298,0,
00:00:00.112,-0.00112310796976089,0.0028633251786232,0,
00:00:00.113,-0.00111848115921021,0.00285954773426056,0,
00:00:00.114,-0.00112004578113556,0.00285925716161728,0,
00:00:00.115,-0.00112473964691162,0.00285907834768295,0,
00:00:00.116,-0.00112693011760712,0.00286057591438293,0,
00:00:00.117,-0.0011259913444519,0.00286670029163361,0,
00:00:00.118,-0.00112543255090714,0.002873495221138,0,
00:00:00.119,-0.00112393498420715,0.00287535041570663,0,
00:00:00.12,-0.00111564248800278,0.00286779552698135,0,
00:00:00.121,-0.00110822170972824,0.0028609111905098,0,
00:00:00.122,-0.00111130625009537,0.00286131352186203,0,
00:00:00.123,-0.00110980868339539,0.00286252051591873,0,
00:00:00.124,-0.00110303610563278,0.00285769253969193,0,
00:00:00.125,-0.00110267847776413,0.00284325331449509,0,
00:00:00.126,-0.0011080875992775,0.00283044576644897,0,
00:00:00.127,-0.00111157447099686,0.00282400846481323,0,
00:00:00.128,-0.00111474841833115,0.00282405316829681,0,
00:00:00.129,-0.00111304968595505,0.00283699482679367,0,
00:00:00.13,-0.00111246854066849,0.00285585969686508,0,
00:00:00.131,-0.00111537426710129,0.00287112593650818,0,
00:00:00.132,-0.00111984461545944,0.00288113951683044,0,
00:00:00.133,-0.00112456083297729,0.0028846263885498,0,
00:00:00.134,-0.00112764537334442,0.00287492573261261,0,
00:00:00.135,-0.00113070756196976,0.00286495685577393,0,
00:00:00.136,-0.00113452970981598,0.00284823775291443,0,
00:00:00.137,-0.0011272206902504,0.00282789766788483,0,
00:00:00.138,-0.00112590193748474,0.00281645357608795,0,
00:00:00.139,-0.00112706422805786,0.00281956046819687,0,
00:00:00.14,-0.00112201273441315,0.0028328150510788,0,
00:00:00.141,-0.00112534314393997,0.00283985584974289,0,
00:00:00.142,-0.00112469494342804,0.00284142047166824,0,
00:00:00.143,-0.00111260265111923,0.00285174697637558,0,
00:00:00.144,-0.00111441314220428,0.00286824256181717,0,
00:00:00.145,-0.00112404674291611,0.00287195295095444,0,
00:00:00.146,-0.00112956762313843,0.0028676837682724,0,
00:00:00.147,-0.00113276392221451,0.00287032127380371,0,
00:00:00.148,-0.00113305449485779,0.00288127362728119,0,
00:00:00.149,-0.00112554430961609,0.00287977606058121,0,
00:00:00.15,-0.00112418085336685,0.00286996364593506,0,
00:00:00.151,-0.00112945586442947,0.00286100059747696,0,
00:00:00.152,-0.00113119930028915,0.00284696370363235,0,
00:00:00.153,-0.00113137811422348,0.00284095108509064,0,
00:00:00.154,-0.0011262372136116,0.00285431742668152,0,
00:00:00.155,-0.00112342089414597,0.00287443399429321,0,
00:00:00.156,-0.00112105160951614,0.00288581103086472,0,
00:00:00.157,-0.00111367553472519,0.0028853639960289,0,
00:00:00.158,-0.00110397487878799,0.00288272649049759,0,
00:00:00.159,-0.00109740346670151,0.0028802901506424,0,
00:00:00.16,-0.00109418481588364,0.00287695974111557,0,
00:00:00.161,-0.00109367072582245,0.00287523865699768,0,
00:00:00.162,-0.00109586119651794,0.00287492573261261,0,
00:00:00.163,-0.00109762698411942,0.00287152826786041,0,
00:00:00.164,-0.00109782814979553,0.00286898016929626,0,
00:00:00.165,-0.00109751522541046,0.00286810845136642,0,
00:00:00.166,-0.00109760463237762,0.00286086648702621,0,
00:00:00.167,-0.00110046565532684,0.00284725427627563,0,
00:00:00.168,-0.00110486894845963,0.00283931940793991,0,
00:00:00.169,-0.00110902637243271,0.00283663719892502,0,
00:00:00.17,-0.00111240148544312,0.00284135341644287,0,
00:00:00.171,-0.00111615657806396,0.00284931063652039,0,
00:00:00.172,-0.0011206716299057,0.00285501033067703,0,
00:00:00.173,-0.00112491846084595,0.0028628334403038,0,
00:00:00.174,-0.00112782418727875,0.00288424640893936,0,
00:00:00.175,-0.0011289194226265,0.00288797914981842,0,
00:00:00.176,-0.0011288970708847,0.00288002192974091,0,
00:00:00.177,-0.00112397968769073,0.00287081301212311,0,
00:00:00.178,-0.00112053751945496,0.00286419689655304,0,
00:00:00.179,-0.00112641602754593,0.00286124646663666,0,
00:00:00.18,-0.00112420320510864,0.00285813957452774,0,
00:00:00.181,-0.00111597776412964,0.00285252928733826,0,
00:00:00.182,-0.00111906230449677,0.00284915417432785,0,
00:00:00.183,-0.00112476199865341,0.00284935534000397,0,
00:00:00.184,-0.00113050639629364,0.00284801423549652,0,
00:00:00.185,-0.00113877654075623,0.00283952057361603,0,
00:00:00.186,-0.00114834308624268,0.0028366819024086,0,
00:00:00.187,-0.00115875899791718,0.00283914059400558,0,
00:00:00.188,-0.00117116421461105,0.00283518433570862,0,
00:00:00.189,-0.00116168707609177,0.00283049046993256,0,
00:00:00.19,-0.00112541019916534,0.00283578783273697,0,
00:00:00.191,-0.00110292434692383,0.00284897536039352,0,
00:00:00.192,-0.00109890103340149,0.00285463035106659,0,
00:00:00.193,-0.00109852105379105,0.00285181403160095,0,
00:00:00.194,-0.00109525769948959,0.00285203754901886,0,
00:00:00.195,-0.00107880681753159,0.00285878777503967,0,
00:00:00.196,-0.0010998398065567,0.00287036597728729,0,
00:00:00.197,-0.00112283974885941,0.00288301706314087,0,
00:00:00.198,-0.00113231688737869,0.00288075953722,0,
00:00:00.199,-0.00113274157047272,0.0028710812330246,0,
00:00:00.2,-0.0011218786239624,-0.106550619006157,0,
00:00:00.201,0.0561504140496254,0.0868377909064293,0,
00:00:00.202,-0.0190830454230309,0.0831356272101402,0,
00:00:00.203,-0.0158901438117027,0.0809211954474449,0,
00:00:00.204,-0.0122909769415855,0.0850982889533043,0,
00:00:00.205,-0.011106513440609,0.0916156992316246,0,
00:00:00.206,-0.0114612802863121,0.0898361429572105,0,
00:00:00.207,-0.0117988809943199,0.0880680307745934,0,
00:00:00.208,NaN,NaN,0,
00:00:00.209,NaN,NaN,0,
00:00:00.21,NaN,NaN,0,
00:00:00.211,NaN,NaN,0,
00:00:00.212,NaN,NaN,0,
00:00:00.213,NaN,NaN,0,
00:00:00.214,NaN,NaN,0,
00:00:00.215,NaN,NaN,0,
00:00:00.216,NaN,NaN,0,
00:00:00.217,NaN,NaN,0,
00:00:00.218,NaN,NaN,0,
00:00:00.219,NaN,NaN,0,
00:00:00.22,NaN,NaN,0,
00:00:00.221,NaN,NaN,0,
00:00:00.222,NaN,NaN,0,
00:00:00.223,NaN,NaN,0,
00:00:00.224,NaN,NaN,0,
00:00:00.225,NaN,NaN,0,
00:00:00.226,NaN,NaN,0,
00:00:00.227,NaN,NaN,0,
00:00:00.228,NaN,NaN,0,
00:00:00.229,NaN,NaN,0,
00:00:00.23,NaN,NaN,0,
00:00:00.231,NaN,NaN,0,
00:00:00.232,NaN,NaN,0,
00:00:00.233,NaN,NaN,0,
00:00:00.234,NaN,NaN,0,
00:00:00.235,NaN,NaN,0,
00:00:00.236,NaN,NaN,0,
00:00:00.237,NaN,NaN,0,
00:00:00.238,NaN,NaN,0,
00:00:00.239,NaN,NaN,0,
00:00:00.24,NaN,NaN,0,
00:00:00.241,NaN,NaN,0,
00:00:00.242,NaN,NaN,0,
00:00:00.243,NaN,NaN,0,
00:00:00.244,NaN,NaN,0,
00:00:00.245,NaN,NaN,0,
00:00:00.246,NaN,NaN,0,
00:00:00.247,NaN,NaN,0,
00:00:00.248,NaN,NaN,0,
00:00:00.249,NaN,NaN,0,
00:00:00.25,NaN,NaN,0,
00:00:00.251,NaN,NaN,0,
00:00:00.252,NaN,NaN,0,
00:00:00.253,NaN,NaN,0,
00:00:00.254,NaN,NaN,0,
00:00:00.255,NaN,NaN,0,
00:00:00.256,NaN,NaN,0,
00:00:00.257,NaN,NaN,0,
00:00:00.258,NaN,NaN,0,
00:00:00.259,NaN,NaN,0,
00:00:00.26,NaN,NaN,0,
00:00:00.261,NaN,NaN,0,
00:00:00.262,NaN,NaN,0,
00:00:00.263,NaN,NaN,0,
00:00:00.264,NaN,NaN,0,
00:00:00.265,NaN,NaN,0,
00:00:00.266,NaN,NaN,0,
00:00:00.267,NaN,NaN,0,
00:00:00.268,NaN,NaN,0,
00:00:00.269,NaN,NaN,0,
00:00:00.27,NaN,NaN,0,
00:00:00.271,NaN,NaN,0,
00:00:00.272,NaN,NaN,0,
00:00:00.273,NaN,NaN,0,
00:00:00.274,NaN,NaN,0,
00:00:00.275,NaN,NaN,0,
00:00:00.276,NaN,NaN,0,
00:00:00.277,NaN,NaN,0,
00:00:00.278,NaN,NaN,0,
00:00:00.279,NaN,NaN,0,
00:00:00.28,NaN,NaN,0,
00:00:00.281,NaN,NaN,0,
00:00:00.282,NaN,NaN,0,
00:00:00.283,NaN,NaN,0,
00:00:00.284,NaN,NaN,0,
00:00:00.285,NaN,NaN,0,
00:00:00.286,NaN,NaN,0,
00:00:00.287,NaN,NaN,0,
00:00:00.288,NaN,NaN,0,
00:00:00.289,NaN,NaN,0,
00:00:00.29,NaN,NaN,0,
00:00:00.291,NaN,NaN,0,
00:00:00.292,NaN,NaN,0,
00:00:00.293,NaN,NaN,0,
00:00:00.294,NaN,NaN,0,
00:00:00.295,NaN,NaN,0,
00:00:00.296,NaN,NaN,0,
00:00:00.297,NaN,NaN,0,
00:00:00.298,NaN,NaN,0,
00:00:00.299,NaN,NaN,0,
00:00:00.3,NaN,NaN,0,
00:00:00.301,NaN,NaN,0,
00:00:00.302,NaN,NaN,0,
00:00:00.303,NaN,NaN,0,
00:00:00.304,NaN,NaN,0,
00:00:00.305,NaN,NaN,0,
00:00:00.306,NaN,NaN,0,
00:00:00.307,NaN,NaN,0,
00:00:00.308,NaN,NaN,0,
00:00:00.309,NaN,NaN,0,
00:00:00.31,NaN,NaN,0,
00:00:00.311,NaN,NaN,0,
00:00:00.312,NaN,NaN,0,
00:00:00.313,NaN,NaN,0,
00:00:00.314,NaN,NaN,0,
00:00:00.315,NaN,NaN,0,
00:00:00.316,NaN,NaN,0,
00:00:00.317,NaN,NaN,0,
00:00:00.318,NaN,NaN,0,
00:00:00.319,NaN,NaN,0,
00:00:00.32,NaN,NaN,0,
00:00:00.321,NaN,NaN,0,
00:00:00.322,NaN,NaN,0,
00:00:00.323,NaN,NaN,0,
00:00:00.324,NaN,NaN,0,
00:00:00.325,NaN,NaN,0,
00:00:00.326,NaN,NaN,0,
00:00:00.327,NaN,NaN,0,
00:00:00.328,NaN,NaN,0,
00:00:00.329,NaN,NaN,0,
00:00:00.33,NaN,NaN,0,
00:00:00.331,NaN,NaN,0,
00:00:00.332,NaN,NaN,0,
00:00:00.333,NaN,NaN,0,
00:00:00.334,NaN,NaN,0,
00:00:00.335,NaN,NaN,0,
00:00:00.336,NaN,NaN,0,
00:00:00.337,NaN,NaN,0,
00:00:00.338,NaN,NaN,0,
00:00:00.339,NaN,NaN,0,
00:00:00.34,NaN,NaN,0,
00:00:00.341,NaN,NaN,0,
00:00:00.342,NaN,NaN,0,
00:00:00.343,NaN,NaN,0,
00:00:00.344,NaN,NaN,0,
00:00:00.345,NaN,NaN,0,
00:00:00.346,NaN,NaN,0,
00:00:00.347,NaN,NaN,0,
00:00:00.348,NaN,NaN,0,
00:00:00.349,NaN,NaN,0,
00:00:00.35,NaN,NaN,0,
00:00:00.351,NaN,NaN,0,
00:00:00.352,NaN,NaN,0,
00:00:00.353,NaN,NaN,0,
00:00:00.354,NaN,NaN,0,
00:00:00.355,NaN,NaN,0,
00:00:00.356,NaN,NaN,0,
00:00:00.357,NaN,NaN,0,
00:00:00.358,NaN,NaN,0,
00:00:00.359,NaN,NaN,0,
00:00:00.36,NaN,NaN,0,
00:00:00.361,NaN,NaN,0,
00:00:00.362,NaN,NaN,0,
00:00:00.363,NaN,NaN,0,
00:00:00.364,NaN,NaN,0,
00:00:00.365,NaN,NaN,0,
00:00:00.366,NaN,NaN,0,
00:00:00.367,NaN,NaN,0,
00:00:00.368,NaN,NaN,0,
00:00:00.369,NaN,NaN,0,
00:00:00.37,NaN,NaN,0,
00:00:00.371,NaN,NaN,0,
00:00:00.372,NaN,NaN,0,
00:00:00.373,NaN,NaN,0,
00:00:00.374,NaN,NaN,0,
00:00:00.375,NaN,NaN,0,
00:00:00.376,NaN,NaN,0,
00:00:00.377,NaN,NaN,0,
00:00:00.378,NaN,NaN,0,
00:00:00.379,NaN,NaN,0,
00:00:00.38,NaN,NaN,0,
00:00:00.381,NaN,NaN,0,
00:00:00.382,NaN,NaN,0,
00:00:00.383,NaN,NaN,0,
00:00:00.384,NaN,NaN,0,
00:00:00.385,NaN,NaN,0,
00:00:00.386,NaN,NaN,0,
00:00:00.387,NaN,NaN,0,
00:00:00.388,NaN,NaN,0,
00:00:00.389,NaN,NaN,0,
00:00:00.39,NaN,NaN,0,
00:00:00.391,NaN,NaN,0,
00:00:00.392,NaN,NaN,0,
00:00:00.393,NaN,NaN,0,
00:00:00.394,NaN,NaN,0,
00:00:00.395,NaN,NaN,0,
00:00:00.396,NaN,NaN,0,
00:00:00.397,NaN,NaN,0,
00:00:00.398,NaN,NaN,0,
00:00:00.399,NaN,NaN,0,
00:00:00.4,NaN,NaN,0,
00:00:00.401,NaN,NaN,0,
00:00:00.402,NaN,NaN,0,
00:00:00.403,NaN,NaN,0,
00:00:00.404,NaN,NaN,0,
00:00:00.405,NaN,NaN,0,
00:00:00.406,NaN,NaN,0,
00:00:00.407,NaN,NaN,0,
00:00:00.408,NaN,NaN,0,
00:00:00.409,NaN,NaN,0,
00:00:00.41,NaN,NaN,0,
00:00:00.411,NaN,NaN,0,
00:00:00.412,NaN,NaN,0,
00:00:00.413,NaN,NaN,0,
00:00:00.414,NaN,NaN,0,
00:00:00.415,NaN,NaN,0,
00:00:00.416,NaN,NaN,0,
00:00:00.417,NaN,NaN,0,
00:00:00.418,NaN,NaN,0,
00:00:00.419,NaN,NaN,0,
00:00:00.42,NaN,NaN,0,
00:00:00.421,NaN,NaN,0,
00:00:00.422,NaN,NaN,0,
00:00:00.423,NaN,NaN,0,
00:00:00.424,NaN,NaN,0,
00:00:00.425,NaN,NaN,0,
00:00:00.426,NaN,NaN,0,
00:00:00.427,NaN,NaN,0,
00:00:00.428,NaN,NaN,0,
00:00:00.429,NaN,NaN,0,
00:00:00.43,NaN,NaN,0,
00:00:00.431,NaN,NaN,0,
00:00:00.432,NaN,NaN,0,
00:00:00.433,NaN,NaN,0,
00:00:00.434,NaN,NaN,0,
00:00:00.435,NaN,NaN,0,
00:00:00.436,NaN,NaN,0,
00:00:00.437,NaN,NaN,0,
00:00:00.438,NaN,NaN,0,
00:00:00.439,NaN,NaN,0,
00:00:00.44,NaN,NaN,0,
00:00:00.441,NaN,NaN,0,
00:00:00.442,NaN,NaN,0,
00:00:00.443,NaN,NaN,0,
00:00:00.444,NaN,NaN,0,
00:00:00.445,NaN,NaN,0,
00:00:00.446,NaN,NaN,0,
00:00:00.447,NaN,NaN,0,
00:00:00.448,NaN,NaN,0,
00:00:00.449,NaN,NaN,0,
00:00:00.45,NaN,NaN,0,
00:00:00.451,NaN,NaN,0,
00:00:00.452,NaN,NaN,0,
00:00:00.453,NaN,NaN,0,
00:00:00.454,NaN,NaN,0,
00:00:00.455,NaN,NaN,0,
00:00:00.456,NaN,NaN,0,
00:00:00.457,NaN,NaN,0,
00:00:00.458,NaN,NaN,0,
00:00:00.459,NaN,NaN,0,
00:00:00.46,NaN,NaN,0,
00:00:00.461,NaN,NaN,0,
00:00:00.462,NaN,NaN,0,
00:00:00.463,NaN,NaN,0,
00:00:00.464,NaN,NaN,0,
00:00:00.465,NaN,NaN,0,
00:00:00.466,NaN,NaN,0,
00:00:00.467,NaN,NaN,0,
00:00:00.468,NaN,NaN,0,
00:00:00.469,NaN,NaN,0,
00:00:00.47,NaN,NaN,0,
00:00:00.471,NaN,NaN,0,
00:00:00.472,NaN,NaN,0,
00:00:00.473,NaN,NaN,0,
00:00:00.474,NaN,NaN,0,
00:00:00.475,NaN,NaN,0,
00:00:00.476,NaN,NaN,0,
00:00:00.477,NaN,NaN,0,
00:00:00.478,NaN,NaN,0,
00:00:00.479,NaN,NaN,0,
00:00:00.48,NaN,NaN,0,
00:00:00.481,NaN,NaN,0,
00:00:00.482,NaN,NaN,0,
00:00:00.483,NaN,NaN,0,
00:00:00.484,NaN,NaN,0,
00:00:00.485,NaN,NaN,0,
00:00:00.486,NaN,NaN,0,
00:00:00.487,NaN,NaN,0,
00:00:00.488,NaN,NaN,0,
00:00:00.489,NaN,NaN,0,
00:00:00.49,NaN,NaN,0,
00:00:00.491,NaN,NaN,0,
00:00:00.492,NaN,NaN,0,
00:00:00.493,NaN,NaN,0,
00:00:00.494,NaN,NaN,0,
00:00:00.495,NaN,NaN,0,
00:00:00.496,NaN,NaN,0,
00:00:00.497,NaN,NaN,0,
00:00:00.498,NaN,NaN,0,
00:00:00.499,NaN,NaN,0,
00:00:00.5,NaN,NaN,0,
00:00:00.501,NaN,NaN,0,
00:00:00.502,NaN,NaN,0,
00:00:00.503,NaN,NaN,0,
00:00:00.504,NaN,NaN,0,
00:00:00.505,NaN,NaN,0,
00:00:00.506,NaN,NaN,0,
00:00:00.507,NaN,NaN,0,
00:00:00.508,NaN,NaN,0,
00:00:00.509,NaN,NaN,0,
00:00:00.51,NaN,NaN,0,
00:00:00.511,NaN,NaN,0,
00:00:00.512,NaN,NaN,0,
00:00:00.513,NaN,NaN,0,
00:00:00.514,NaN,NaN,0,
00:00:00.515,NaN,NaN,0,
00:00:00.516,NaN,NaN,0,
00:00:00.517,NaN,NaN,0,
00:00:00.518,NaN,NaN,0,
00:00:00.519,NaN,NaN,0,
00:00:00.52,NaN,NaN,0,
00:00:00.521,NaN,NaN,0,
00:00:00.522,NaN,NaN,0,
00:00:00.523,NaN,NaN,0,
00:00:00.524,NaN,NaN,0,
00:00:00.525,NaN,NaN,0,
00:00:00.526,NaN,NaN,0,
00:00:00.527,NaN,NaN,0,
00:00:00.528,NaN,NaN,0,
00:00:00.529,NaN,NaN,0,
00:00:00.53,NaN,NaN,0,
00:00:00.531,NaN,NaN,0,
00:00:00.532,NaN,NaN,0,
00:00:00.533,NaN,NaN,0,
00:00:00.534,NaN,NaN,0,
00:00:00.535,NaN,NaN,0,
00:00:00.536,NaN,NaN,0,
00:00:00.537,NaN,NaN,0,
00:00:00.538,NaN,NaN,0,
00:00:00.539,NaN,NaN,0,
00:00:00.54,NaN,NaN,0,
00:00:00.541,NaN,NaN,0,
00:00:00.542,NaN,NaN,0,
00:00:00.543,NaN,NaN,0,
00:00:00.544,NaN,NaN,0,
00:00:00.545,NaN,NaN,0,
00:00:00.546,NaN,NaN,0,
00:00:00.547,NaN,NaN,0,
00:00:00.548,NaN,NaN,0,
00:00:00.549,NaN,NaN,0,
00:00:00.55,NaN,NaN,0,
00:00:00.551,NaN,NaN,0,
00:00:00.552,NaN,NaN,0,
00:00:00.553,NaN,NaN,0,
00:00:00.554,NaN,NaN,0,
00:00:00.555,NaN,NaN,0,
00:00:00.556,NaN,NaN,0,
00:00:00.557,NaN,NaN,0,
00:00:00.558,NaN,NaN,0,
00:00:00.559,NaN,NaN,0,
00:00:00.56,NaN,NaN,0,
00:00:00.561,NaN,NaN,0,
00:00:00.562,NaN,NaN,0,
00:00:00.563,NaN,NaN,0,
00:00:00.564,NaN,NaN,0,
00:00:00.565,NaN,NaN,0,
00:00:00.566,NaN,NaN,0,
00:00:00.567,NaN,NaN,0,
00:00:00.568,NaN,NaN,0,
00:00:00.569,NaN,NaN,0,
00:00:00.57,NaN,NaN,0,
00:00:00.571,NaN,NaN,0,
00:00:00.572,NaN,NaN,0,
00:00:00.573,NaN,NaN,0,
00:00:00.574,NaN,NaN,0,
00:00:00.575,NaN,NaN,0,
00:00:00.576,NaN,NaN,0,
00:00:00.577,NaN,NaN,0,
00:00:00.578,NaN,NaN,0,
00:00:00.579,NaN,NaN,0,
00:00:00.58,NaN,NaN,0,
00:00:00.581,NaN,NaN,0,
00:00:00.582,NaN,NaN,0,
00:00:00.583,NaN,NaN,0,
00:00:00.584,NaN,NaN,0,
00:00:00.585,NaN,NaN,0,
00:00:00.586,NaN,NaN,0,
00:00:00.587,NaN,NaN,0,
00:00:00.588,NaN,NaN,0,
00:00:00.589,NaN,NaN,0,
00:00:00.59,NaN,NaN,0,
00:00:00.591,NaN,NaN,0,
00:00:00.592,NaN,NaN,0,
00:00:00.593,NaN,NaN,0,
00:00:00.594,NaN,NaN,0,
00:00:00.595,NaN,NaN,0,
00:00:00.596,NaN,NaN,0,
00:00:00.597,NaN,NaN,0,
00:00:00.598,NaN,NaN,0,
00:00:00.599,NaN,NaN,0,
00:00:00.6,NaN,NaN,0,
00:00:00.601,NaN,NaN,0,
00:00:00.602,NaN,NaN,0,
00:00:00.603,NaN,NaN,0,
00:00:00.604,NaN,NaN,0,
00:00:00.605,NaN,NaN,0,
00:00:00.606,NaN,NaN,0,
00:00:00.607,NaN,NaN,0,
00:00:00.608,NaN,NaN,0,
00:00:00.609,NaN,NaN,0,
00:00:00.61,NaN,NaN,0,
00:00:00.611,NaN,NaN,0,
00:00:00.612,NaN,NaN,0,
00:00:00.613,NaN,NaN,0,
00:00:00.614,NaN,NaN,0,
00:00:00.615,NaN,NaN,0,
00:00:00.616,NaN,NaN,0,
00:00:00.617,NaN,NaN,0,
00:00:00.618,NaN,NaN,0,
00:00:00.619,NaN,NaN,0,
00:00:00.62,NaN,NaN,0,
00:00:00.621,NaN,NaN,0,
00:00:00.622,NaN,NaN,0,
00:00:00.623,NaN,NaN,0,
00:00:00.624,NaN,NaN,0,
00:00:00.625,NaN,NaN,0,
00:00:00.626,NaN,NaN,0,
00:00:00.627,NaN,NaN,0,
00:00:00.628,NaN,NaN,0,
00:00:00.629,NaN,NaN,0,
00:00:00.63,NaN,NaN,0,
00:00:00.631,NaN,NaN,0,
00:00:00.632,NaN,NaN,0,
00:00:00.633,NaN,NaN,0,
00:00:00.634,NaN,NaN,0,
00:00:00.635,NaN,NaN,0,
00:00:00.636,NaN,NaN,0,
00:00:00.637,NaN,NaN,0,
00:00:00.638,NaN,NaN,0,
00:00:00.639,NaN,NaN,0,
00:00:00.64,-0.00110918283462524,0.00289542227983475,0,
00:00:00.641,-0.00110437721014023,0.00289289653301239,0,
00:00:00.642,-0.0011024996638298,0.00288748741149902,0,
00:00:00.643,-0.00110404193401337,0.00288335233926773,0,
00:00:00.644,-0.00110359489917755,0.00288299471139908,0,
00:00:00.645,-0.00109679996967316,0.00288927555084229,0,
00:00:00.646,-0.00109483301639557,0.0028892308473587,0,
00:00:00.647,-0.00109279900789261,0.00288069248199463,0,
00:00:00.648,-0.00109510123729706,0.00287508219480515,0,
00:00:00.649,-0.00109948217868805,0.00287432223558426,0,
00:00:00.65,-0.00110527127981186,0.00287356227636337,0,
00:00:00.651,-0.00111114978790283,0.00287311524152756,0,
00:00:00.652,-0.00111334025859833,0.00287434458732605,0,
00:00:00.653,-0.00111287087202072,0.00287295877933502,0,
00:00:00.654,-0.00111076980829239,0.00287141650915146,0,
00:00:00.655,-0.00110674649477005,0.00287255644798279,0,
00:00:00.656,-0.00110265612602234,0.00287490338087082,0,
00:00:00.657,-0.00110370665788651,0.00287588685750961,0,
00:00:00.658,-0.00110869109630585,0.00287490338087082,0,
00:00:00.659,-0.0011105015873909,0.0028686448931694,0,
00:00:00.66,-0.00110527127981186,0.00286155939102173,0,
00:00:00.661,-0.00109921395778656,0.00285876542329788,0,
00:00:00.662,-0.00110229849815369,0.00285530090332031,0,
00:00:00.663,-0.00110578536987305,0.00285675376653671,0,
00:00:00.664,-0.00110618770122528,0.00286193937063217,0,
00:00:00.665,-0.00111070275306702,0.00286699086427689,0,
00:00:00.666,-0.00112136453390121,0.00286442041397095,0,
00:00:00.667,-0.00114257633686066,0.00286050885915756,0,
00:00:00.668,-0.00115978717803955,0.00285887718200684,0,
00:00:00.669,-0.00115665793418884,0.00285335630178452,0,
00:00:00.67,-0.00114342570304871,0.00284850597381592,0,
00:00:00.671,-0.00113122165203094,0.00285138934850693,0,
00:00:00.672,-0.00111892819404602,0.0028606653213501,0,
00:00:00.673,-0.00110983103513718,0.0028708353638649,0,
00:00:00.674,-0.00110723823308945,0.00286942720413208,0,
00:00:00.675,-0.00110053271055222,0.00286312401294708,0,
00:00:00.676,-0.00109362602233887,0.00285843014717102,0,
00:00:00.677,-0.00109724700450897,0.00285936892032623,0,
00:00:00.678,-0.00109726935625076,0.0028606653213501,0,
00:00:00.679,-0.00109288841485977,0.00285959243774414,0,
00:00:00.68,-0.00109201669692993,0.00285811722278595,0,
00:00:00.681,-0.00109407305717468,0.00285384804010391,0,
00:00:00.682,-0.00109744817018509,0.00285192579030991,0,
00:00:00.683,-0.00110431015491486,0.00285442918539047,0,
00:00:00.684,-0.00110992044210434,0.00285807251930237,0,
00:00:00.685,-0.00111394375562668,0.002866230905056,0,
00:00:00.686,-0.00111611187458038,0.00287063419818878,0,
00:00:00.687,-0.00111819058656693,0.0028655156493187,0,
00:00:00.688,-0.00111984461545944,0.0028642863035202,0,
00:00:00.689,-0.00110960751771927,0.00286781787872314,0,
00:00:00.69,-0.00109840929508209,0.00287114828824997,0,
00:00:00.691,-0.00110095739364624,0.00286880135536194,0,
00:00:00.692,-0.00110768526792526,0.00286350399255753,0,
00:00:00.693,-0.00110936164855957,0.00285907834768295,0,
00:00:00.694,-0.0011078417301178,0.0028616264462471,0,
00:00:00.695,-0.00110699236392975,0.00286500155925751,0,
00:00:00.696,-0.00109925866127014,0.00286851078271866,0,
00:00:00.697,-0.00109398365020752,0.0028686448931694,0,
00:00:00.698,-0.00109559297561646,0.00286558270454407,0,
00:00:00.699,-0.00110059976577759,0.0028635710477829,0,
00:00:00.7,-0.00110632181167603,0.00285483151674271,0,
00:00:00.701,-0.00110840052366257,0.00284940004348755,0,
00:00:00.702,-0.00110804289579391,0.00284875184297562,0,
00:00:00.703,-0.00110571831464767,0.00285438448190689,0,
00:00:00.704,-0.00110363960266113,0.00285858660936356,0,
00:00:00.705,-0.00110310316085815,0.00285816192626953,0,
00:00:00.706,-0.00110355019569397,0.00285784900188446,0,
00:00:00.707,-0.00110453367233276,0.0028696283698082,0,
00:00:00.708,-0.00110600888729095,0.00287716090679169,0,
00:00:00.709,-0.00110515952110291,0.0028693825006485,0,
00:00:00.71,-0.00110359489917755,0.00286395102739334,0,
00:00:00.711,-0.00110234320163727,0.00286716967821121,0,
00:00:00.712,-0.00109713524580002,0.00286585092544556,0,
00:00:00.713,-0.00108741223812103,0.00287269055843353,0,
00:00:00.714,-0.0010918602347374,0.00287854671478271,0,
00:00:00.715,-0.00109836459159851,0.00287702679634094,0,
00:00:00.716,-0.00110127031803131,0.00287550687789917,0,
00:00:00.717,-0.00110241025686264,0.00287564098834991,0,
00:00:00.718,-0.00110218673944473,0.00288037955760956,0,
00:00:00.719,-0.00110232084989548,0.00287850201129913,0,
00:00:00.72,-0.00110279023647308,0.00287025421857834,0,
00:00:00.721,-0.0011015385389328,0.00286260992288589,0,
00:00:00.722,-0.00110142678022385,0.00285838544368744,0,
00:00:00.723,-0.00110180675983429,0.00285869836807251,0,
00:00:00.724,-0.00110068917274475,0.00286053121089935,0,
00:00:00.725,-0.00110030919313431,0.00285849720239639,0,
00:00:00.726,-0.00110571831464767,0.00285914540290833,0,
00:00:00.727,-0.0011109933257103,0.0028713271021843,0,
00:00:00.728,-0.00111660361289978,0.00288118422031403,0,
00:00:00.729,-0.00112069398164749,0.0028773620724678,0,
00:00:00.73,-0.0011218786239624,0.00286918133497238,0,
00:00:00.731,-0.0011228621006012,0.00286629796028137,0,
00:00:00.732,-0.00112485140562057,0.00286951661109924,0,
00:00:00.733,-0.00112118571996689,0.00287166237831116,0,
00:00:00.734,-0.00111763179302216,0.00286272168159485,0,
00:00:00.735,-0.00111763179302216,0.00285268574953079,0,
00:00:00.736,-0.00111738592386246,0.00284081697463989,0,
00:00:00.737,-0.00111604481935501,0.00283093750476837,0,
00:00:00.738,-0.00110916048288345,0.00283493846654892,0,
00:00:00.739,-0.00109615176916122,0.00284137576818466,0,
00:00:00.74,-0.00110051035881042,0.00284779071807861,0,
00:00:00.741,-0.00110761821269989,0.00285843014717102,0,
00:00:00.742,-0.00111090391874313,0.0028713271021843,0,
00:00:00.743,-0.00111023336648941,0.00288187712430954,0,
00:00:00.744,-0.0011102557182312,0.00288413465023041,0,
00:00:00.745,-0.00110967457294464,0.00287143886089325,0,
00:00:00.746,-0.00110466778278351,0.00285505503416061,0,
00:00:00.747,-0.00110214203596115,0.00284752249717712,0,
00:00:00.748,-0.00111152976751328,0.00284305214881897,0,
00:00:00.749,-0.00111477077007294,0.00283563137054443,0,
00:00:00.75,-0.00111197680234909,0.002837173640728,0,
00:00:00.751,-0.0011044442653656,0.00284095108509064,0,
00:00:00.752,-0.00110571831464767,0.00284803658723831,0,
00:00:00.753,-0.00110884755849838,0.00286026298999786,0,
00:00:00.754,-0.00111043453216553,0.00287921726703644,0,
00:00:00.755,-0.00111986696720123,0.00290168076753616,0,
00:00:00.756,-0.00113292038440704,0.00291895866394043,0,
00:00:00.757,-0.00113325566053391,0.00291842222213745,0,
00:00:00.758,-0.00113231688737869,0.00289779156446457,0,
00:00:00.759,-0.00112646073102951,0.0028836652636528,0,
00:00:00.76,-0.00111550837755203,0.00287847965955734,0,
00:00:00.761,-0.00111293792724609,0.00287653505802155,0,
00:00:00.762,-0.00111260265111923,0.00287199765443802,0,
00:00:00.763,-0.00110252201557159,0.00286556035280228,0,
00:00:00.764,-0.00108600407838821,0.00286086648702621,0,
00:00:00.765,-0.0010845959186554,0.00285903364419937,0,
00:00:00.766,-0.00109139084815979,0.00285941362380981,0,
00:00:00.767,-0.00108439475297928,0.00286272168159485,0,
00:00:00.768,-0.00108173489570618,0.002867192029953,0,
00:00:00.769,-0.00108522176742554,0.0028720423579216,0,
00:00:00.77,-0.00108656287193298,0.00287467986345291,0,
00:00:00.771,-0.00108884274959564,0.00287020951509476,0,
00:00:00.772,-0.00109447538852692,0.00286444276571274,0,
00:00:00.773,-0.00109847635030746,0.00285708904266357,0,
00:00:00.774,-0.00110359489917755,0.00284767895936966,0,
00:00:00.775,-0.00111673772335052,0.00284316390752792,0,
00:00:00.776,-0.00112442672252655,0.00284233689308167,0,
00:00:00.777,-0.0011291429400444,0.00284081697463989,0,
00:00:00.778,-0.00113911181688309,0.00284074991941452,0,
00:00:00.779,-0.00114572793245316,0.00284459441900253,0,
00:00:00.78,-0.00114818662405014,0.00285813957452774,0,
00:00:00.781,-0.00114058703184128,0.00287765264511108,0,
00:00:00.782,-0.00110835582017899,0.00288529694080353,0,
00:00:00.783,-0.00109550356864929,0.00288223475217819,0,
00:00:00.784,-0.00110263377428055,0.00287649035453796,0,
00:00:00.785,-0.00109326839447021,0.00287751853466034,0,
00:00:00.786,-0.0010785385966301,0.00287126004695892,0,
00:00:00.787,-0.00108090788125992,0.0028708353638649,0,
00:00:00.788,-0.00108980387449265,0.0028742328286171,0,
00:00:00.789,-0.00109557062387466,0.00287396460771561,0,
00:00:00.79,-0.00109899044036865,0.00287195295095444,0,
00:00:00.791,-0.0010957270860672,0.00287391990423203,0,
00:00:00.792,-0.00109304487705231,0.00287528336048126,0,
00:00:00.793,-0.0010949894785881,0.0028708353638649,0,
00:00:00.794,-0.00109648704528809,0.00286766141653061,0,
00:00:00.795,-0.00109286606311798,0.00286763906478882,0,
00:00:00.796,-0.0010940283536911,0.00286059826612473,0,
00:00:00.797,-0.00110053271055222,0.0028456449508667,0,
00:00:00.798,-0.0011056512594223,0.00283480435609818,0,
00:00:00.799,-0.00110095739364624,0.00281969457864761,0,
00:00:00.8,-0.00109429657459259,0.00281057506799698,0,
00:00:00.801,-0.00109679996967316,0.00280925631523132,0,
00:00:00.802,-0.00110254436731339,0.00281113386154175,0,
00:00:00.803,-0.00110442191362381,0.00282590836286545,0,
00:00:00.804,-0.00110533833503723,0.00285568088293076,0,
00:00:00.805,-0.00110701471567154,0.00288759917020798,0,
00:00:00.806,-0.00110598653554916,0.00289866328239441,0,
00:00:00.807,-0.00110343843698502,0.00289848446846008,0,
00:00:00.808,-0.00109514594078064,0.00288373231887817,0,
00:00:00.809,-0.00109076499938965,0.00286877900362015,0,
00:00:00.81,-0.00109425187110901,0.00285069644451141,0,
00:00:00.811,-0.00109764933586121,0.00284430384635925,0,
00:00:00.812,-0.00110165029764175,0.00284562259912491,0,
00:00:00.813,-0.001106858253479,0.00285042822360992,0,
00:00:00.814,-0.00111226737499237,0.00286708027124405,0,
00:00:00.815,-0.00111729651689529,0.00288650393486023,0,
00:00:00.816,-0.00111973285675049,0.00289761275053024,0,
00:00:00.817,-0.00112073868513107,0.00289043784141541,0,
00:00:00.818,-0.00112297385931015,0.00287416577339172,0,
00:00:00.819,-0.00112704187631607,0.00286629796028137,0,
00:00:00.82,-0.00113388150930405,0.00285858660936356,0,
00:00:00.821,-0.00113437324762344,0.00285802781581879,0,
00:00:00.822,-0.00111188739538193,0.00286737084388733,0,
00:00:00.823,-0.00110024213790894,0.0028766468167305,0,
00:00:00.824,-0.00110621005296707,0.00288080424070358,0,
00:00:00.825,-0.00109849870204926,0.00288069248199463,0,
00:00:00.826,-0.00109212845563889,0.00287861377000809,0,
00:00:00.827,-0.00108922272920609,0.0028727799654007,0,
00:00:00.828,-0.00109123438596725,0.0028635710477829,0,
00:00:00.829,-0.00110118091106415,0.00285366922616959,0,
00:00:00.83,-0.0011054053902626,0.00284743309020996,0,
00:00:00.831,-0.00110211968421936,0.00284765660762787,0,
00:00:00.832,-0.00109599530696869,0.00285704433917999,0,
00:00:00.833,-0.00108906626701355,0.0028618723154068,0,
00:00:00.834,-0.00108593702316284,0.00286285579204559,0,
00:00:00.835,-0.0010891780257225,0.00286685675382614,0,
00:00:00.836,-0.00109237432479858,0.00287065654993057,0,
00:00:00.837,-0.00109465420246124,0.00287733972072601,0,
00:00:00.838,-0.00109543651342392,0.00287926197052002,0,
00:00:00.839,-0.00109713524580002,0.00287700444459915,0,
00:00:00.84,-0.00109798461198807,0.0028778538107872,0,
00:00:00.841,-0.00109758228063583,0.00287642329931259,0,
00:00:00.842,-0.00109963864088058,0.002874456346035,0,
00:00:00.843,-0.00110035389661789,0.00287239998579025,0,
00:00:00.844,-0.00109811872243881,0.00287038832902908,0,
00:00:00.845,-0.00109677761793137,0.00287054479122162,0,
00:00:00.846,-0.00109816342592239,0.00287181884050369,0,
00:00:00.847,-0.00110004097223282,0.0028727799654007,0,
00:00:00.848,-0.00110010802745819,0.00288011133670807,0,
00:00:00.849,-0.00109916925430298,0.00288529694080353,0,
00:00:00.85,-0.00109827518463135,0.00288384407758713,0,
00:00:00.851,-0.00110236555337906,0.00287944078445435,0,
00:00:00.852,-0.00110665708780289,0.00287687033414841,0,
00:00:00.853,-0.00111157447099686,0.00287479162216187,0,
00:00:00.854,-0.00111796706914902,0.00287313759326935,0,
00:00:00.855,-0.00112248212099075,0.00287050008773804,0,
00:00:00.856,-0.00112400203943253,0.00286835432052612,0,
00:00:00.857,-0.00111912935972214,0.00286529213190079,0,
00:00:00.858,-0.00111262500286102,0.002865269780159,0,
00:00:00.859,-0.00111336261034012,0.00286880135536194,0,
00:00:00.86,-0.00112386792898178,0.0028657391667366,0,
00:00:00.861,-0.00114011764526367,0.00286193937063217,0,
00:00:00.862,-0.00113960355520248,0.00286171585321426,0,
00:00:00.863,-0.00113390386104584,0.00286522507667542,0,
00:00:00.864,-0.00112465023994446,0.00286779552698135,0,
00:00:00.865,-0.00111101567745209,0.00286927074193954,0,
00:00:00.866,-0.00109807401895523,0.00286969542503357,0,
00:00:00.867,-0.00107958912849426,0.00287260115146637,0,
00:00:00.868,-0.00106441229581833,0.0028754398226738,0,
00:00:00.869,-0.0010736882686615,0.00287172943353653,0,
00:00:00.87,-0.00107976794242859,0.00286674499511719,0,
00:00:00.871,-0.00108616054058075,0.00286468863487244,0,
00:00:00.872,-0.00109114497900009,0.00286721438169479,0,
00:00:00.873,-0.00109454244375229,0.002873495221138,0,
00:00:00.874,-0.00109816342592239,0.00288201123476028,0,
00:00:00.875,-0.00110102444887161,0.00287738442420959,0,
00:00:00.876,-0.00110075622797012,0.00287123769521713,0,
00:00:00.877,-0.00110037624835968,0.0028730034828186,0,
00:00:00.878,-0.00110254436731339,0.00287385284900665,0,
00:00:00.879,-0.00110612064599991,0.00287271291017532,0,
00:00:00.88,-0.00110969692468643,0.00287063419818878,0,
00:00:00.881,-0.00111481547355652,0.00287338346242905,0,
00:00:00.882,-0.00112009048461914,0.00287403166294098,0,
00:00:00.883,-0.0011238232254982,0.00287311524152756,0,
00:00:00.884,-0.00112900882959366,0.00287054479122162,0,
00:00:00.885,-0.00113014876842499,0.00286511331796646,0,
00:00:00.886,-0.0011233314871788,0.00286339223384857,0,
00:00:00.887,-0.00111888349056244,0.00286976248025894,0,
00:00:00.888,-0.00112203508615494,0.00287472456693649,0,
00:00:00.889,-0.00112047046422958,0.00287463515996933,0,
00:00:00.89,-0.00110218673944473,0.00287447869777679,0,
00:00:00.891,-0.00106959789991379,0.00287490338087082,0,
00:00:00.892,-0.00108247250318527,0.00287085771560669,0,
00:00:00.893,-0.00111009925603867,0.00286801904439926,0,
00:00:00.894,-0.00111566483974457,0.00286813080310822,0,
00:00:00.895,-0.00111240148544312,0.00286875665187836,0,
00:00:00.896,-0.00110460072755814,0.00286915898323059,0,
00:00:00.897,-0.00109858810901642,0.00286716967821121,0,
00:00:00.898,-0.00109740346670151,0.00286330282688141,0,
00:00:00.899,-0.00109655410051346,0.00286131352186203,0,
00:00:00.9,-0.00109414011240005,0.00286330282688141,0,
00:00:00.901,-0.00109852105379105,0.00286345928907394,0,
00:00:00.902,-0.00110377371311188,0.00286142528057098,0,
00:00:00.903,-0.00110913813114166,0.00285867601633072,0,
00:00:00.904,-0.00111785531044006,0.00285639613866806,0,
00:00:00.905,-0.00111729651689529,0.00285237282514572,0,
00:00:00.906,-0.00111284852027893,0.00284998118877411,0,
00:00:00.907,-0.00110884755849838,0.00284848362207413,0,
00:00:00.908,-0.0011066347360611,0.00284953415393829,0,
00:00:00.909,-0.00110413134098053,0.00284696370363235,0,
00:00:00.91,-0.00110448896884918,0.00284682959318161,0,
00:00:00.911,-0.00110799819231033,0.00284881889820099,0,
00:00:00.912,-0.00111260265111923,0.00285159051418304,0,
00:00:00.913,-0.00110824406147003,0.00285758078098297,0,
00:00:00.914,-0.00110028684139252,0.0028584748506546,0,
00:00:00.915,-0.00110683590173721,0.00285440683364868,0,
00:00:00.916,-0.00110422074794769,0.00285431742668152,0,
00:00:00.917,-0.00110252201557159,0.00286886841058731,0,
00:00:00.918,-0.00110714882612228,0.00287595391273499,0,
00:00:00.919,-0.00110594183206558,0.00286459922790527,0,
00:00:00.92,-0.00110417604446411,0.00286354869604111,0,
00:00:00.921,-0.00110667943954468,0.00287088006734848,0,
00:00:00.922,-0.00110460072755814,0.00286616384983063,0,
00:00:00.923,-0.00109089910984039,0.00286406278610229,0,
00:00:00.924,-0.00108902156352997,0.00286636501550674,0,
00:00:00.925,-0.00109333544969559,0.00287765264511108,0,
00:00:00.926,-0.00109798461198807,0.00288764387369156,0,
00:00:00.927,-0.00110667943954468,0.00288925319910049,0,
00:00:00.928,-0.0011153519153595,0.0028916671872139,0,
00:00:00.929,-0.00111984461545944,0.00289296358823776,0,
00:00:00.93,-0.00112176686525345,0.00289271771907806,0,
00:00:00.931,-0.00112420320510864,0.0028921365737915,0,
00:00:00.932,-0.00112196803092957,0.00288849323987961,0,
00:00:00.933,-0.0011160671710968,0.00288377702236176,0,
00:00:00.934,-0.00110779702663422,0.00288335233926773,0,
00:00:00.935,-0.0011092945933342,0.0028790608048439,0,
00:00:00.936,-0.00111358612775803,0.00287345051765442,0,
00:00:00.937,-0.00111164152622223,0.00286886841058731,0,
00:00:00.938,-0.00110549479722977,0.00286819785833359,0,
00:00:00.939,-0.00111199915409088,0.00286922603845596,0,
00:00:00.94,-0.00112123042345047,0.00287271291017532,0,
00:00:00.941,-0.00112351030111313,0.00287709385156631,0,
00:00:00.942,-0.00111794471740723,0.00288136303424835,0,
00:00:00.943,-0.00111595541238785,0.00288071483373642,0,
00:00:00.944,-0.00111941993236542,0.00287747383117676,0,
00:00:00.945,-0.00112087279558182,0.00287181884050369,0,
00:00:00.946,-0.00111515074968338,0.00286497920751572,0,
00:00:00.947,-0.00109326839447021,0.00286272168159485,0,
00:00:00.948,-0.00109856575727463,0.00286238640546799,0,
00:00:00.949,-0.00110366195440292,0.00286316871643066,0,
00:00:00.95,-0.00109592825174332,0.00286524742841721,0,
00:00:00.951,-0.00109655410051346,0.00286636501550674,0,
00:00:00.952,-0.0011003315448761,0.00286488980054855,0,
00:00:00.953,-0.00110766291618347,0.00286323577165604,0,
00:00:00.954,-0.00112996995449066,0.00286180526018143,0,
00:00:00.955,-0.00114255398511887,0.00286444276571274,0,
00:00:00.956,-0.00114398449659348,0.00287327170372009,0,
00:00:00.957,-0.00113533437252045,0.00287197530269623,0,
00:00:00.958,-0.00112290680408478,0.00286354869604111,0,
00:00:00.959,-0.00110987573862076,0.00285997241735458,0,
00:00:00.96,-0.00109532475471497,0.00285954773426056,0,
00:00:00.961,-0.00109492242336273,0.00285874307155609,0,
00:00:00.962,-0.00109988451004028,0.00286144763231277,0,
00:00:00.963,-0.0010986328125,0.00285981595516205,0,
00:00:00.964,-0.00109595060348511,0.00285333395004272,0,
00:00:00.965,-0.00110037624835968,0.00285154581069946,0,
00:00:00.966,-0.00109148025512695,0.0028587207198143,0,
00:00:00.967,-0.00108806043863297,0.00286904722452164,0,
00:00:00.968,-0.00109199434518814,0.00286388397216797,0,
00:00:00.969,-0.00109380483627319,0.00285675376653671,0,
00:00:00.97,-0.00109192728996277,0.00285438448190689,0,
00:00:00.971,-0.00108794867992401,0.00285326689481735,0,
00:00:00.972,-0.00108578056097031,0.00285020470619202,0,
00:00:00.973,-0.00108466297388077,0.00285438448190689,0,
00:00:00.974,-0.00108989328145981,0.00286379456520081,0,
00:00:00.975,-0.00109671056270599,0.00286893546581268,0,
00:00:00.976,-0.00110073387622833,0.00287362933158875,0,
00:00:00.977,-0.00110571831464767,0.00287702679634094,0,
00:00:00.978,-0.00110947340726852,0.00287447869777679,0,
00:00:00.979,-0.00110723823308945,0.00287271291017532,0,
00:00:00.98,-0.00110484659671783,0.00286363810300827,0,
00:00:00.981,-0.00111287087202072,0.00285232812166214,0,
00:00:00.982,-0.00111830234527588,0.00285632908344269,0,
00:00:00.983,-0.00111937522888184,0.00287119299173355,0,
00:00:00.984,-0.00111369788646698,0.00287476927042007,0,
00:00:00.985,-0.00110873579978943,0.00286511331796646,0,
00:00:00.986,-0.00110974162817001,0.00286645442247391,0,
00:00:00.987,-0.00110810995101929,0.00287257879972458,0,
00:00:00.988,-0.0011112168431282,0.00287311524152756,0,
00:00:00.989,-0.00111767649650574,0.00287005305290222,0,
00:00:00.99,-0.00111790001392365,0.00286374986171722,0,
00:00:00.991,-0.00110332667827606,0.00286893546581268,0,
00:00:00.992,-0.00110448896884918,0.00287407636642456,0,
00:00:00.993,-0.00111264735460281,0.00287271291017532,0,
00:00:00.994,-0.00111014395952225,0.00286701321601868,0,
00:00:00.995,-0.00108799338340759,0.00285080820322037,0,
00:00:00.996,-0.00107567757368088,0.00284278392791748,0,
00:00:00.997,-0.00108544528484344,0.0028373971581459,0,
00:00:00.998,-0.0010969340801239,0.00282832235097885,0,
00:00:00.999,-0.00110363960266113,0.00282273441553116,0,
00:00:01,-0.00110705941915512,0.00283053517341614,0,
00:00:01.001,-0.00110732764005661,0.00285471975803375,0,
00:00:01.002,-0.0011027455329895,0.00288596749305725,0,
00:00:01.003,-0.00109179317951202,0.00291232019662857,0,
00:00:01.004,-0.00108989328145981,0.00292202085256577,0,
00:00:01.005,-0.00108747929334641,0.0029197633266449,0,
00:00:01.006,-0.00107862800359726,0.0029149129986763,0,
00:00:01.007,-0.0010858029127121,0.00290313363075256,0,
00:00:01.008,-0.00108993798494339,0.00289063900709152,0,
00:00:01.009,-0.00109315663576126,0.00287586450576782,0,
00:00:01.01,-0.00109684467315674,0.00287114828824997,0,
00:00:01.011,-0.00109711289405823,0.00287427753210068,0,
00:00:01.012,-0.00109172612428665,0.00288127362728119,0,
00:00:01.013,-0.00109241902828217,0.00288978964090347,0,
00:00:01.014,-0.00109840929508209,0.00289888679981232,0,
00:00:01.015,-0.00110084563493729,0.00290190428495407,0,
00:00:01.016,-0.00109865516424179,0.00290098786354065,0,
00:00:01.017,-0.00109581649303436,0.00289763510227203,0,
00:00:01.018,-0.00109103322029114,0.00289126485586166,0,
00:00:01.019,-0.00108902156352997,0.00288138538599014,0,
00:00:01.02,-0.00109235197305679,0.00287816673517227,0,
00:00:01.021,-0.00110006332397461,0.0028844028711319,0,
00:00:01.022,-0.00111432373523712,0.00288116186857224,0,
00:00:01.023,-0.00112317502498627,0.0028773620724678,0,
00:00:01.024,-0.00112637132406235,0.00287400931119919,0,
00:00:01.025,-0.0011214092373848,0.00287029892206192,0,
00:00:01.026,-0.00111997872591019,0.00286723673343658,0,
00:00:01.027,-0.00111738592386246,0.00286524742841721,0,
00:00:01.028,-0.00110480189323425,0.00286352634429932,0,
00:00:01.029,-0.00107545405626297,0.00286421924829483,0,
00:00:01.03,-0.00106780976057053,0.00286750495433807,0,
00:00:01.031,-0.00107762217521667,0.00287005305290222,0,
00:00:01.032,-0.00107934325933456,0.00287485867738724,0,
00:00:01.033,-0.00109159201383591,0.0028739869594574,0,
00:00:01.034,-0.00111302733421326,0.00287222117185593,0,
00:00:01.035,-0.00112275034189224,0.00287523865699768,0,
00:00:01.036,-0.00112310796976089,0.00287472456693649,0,
00:00:01.037,-0.00112120807170868,0.00287298113107681,0,
00:00:01.038,-0.00111718475818634,0.00287126004695892,0,
00:00:01.039,-0.00110531598329544,0.00287619978189468,0,
00:00:01.04,-0.00108490884304047,0.00288105010986328,0,
00:00:01.041,-0.00106678158044815,0.00288138538599014,0,
00:00:01.042,-0.00107011198997498,0.00288279354572296,0,
00:00:01.043,-0.00107715278863907,0.00288478285074234,0,
00:00:01.044,-0.00107860565185547,0.00288567692041397,0,
00:00:01.045,-0.00107766687870026,0.00288507342338562,0,
00:00:01.046,-0.00107672810554504,0.00288306176662445,0,
00:00:01.047,-0.00107692927122116,0.00287941843271255,0,
00:00:01.048,-0.00108421593904495,0.00287758558988571,0,
00:00:01.049,-0.00109103322029114,0.00287698209285736,0,
00:00:01.05,-0.0010942742228508,0.00287213176488876,0,
00:00:01.051,-0.00109939277172089,0.00286328047513962,0,
00:00:01.052,-0.00110665708780289,0.00285463035106659,0,
00:00:01.053,-0.00111157447099686,0.00285116583108902,0,
00:00:01.054,-0.00111215561628342,0.00285632908344269,0,
00:00:01.055,-0.00111204385757446,0.00286361575126648,0,
00:00:01.056,-0.00110643357038498,0.00287479162216187,0,
00:00:01.057,-0.00109210610389709,0.00289229303598404,0,
00:00:01.058,-0.00108575820922852,0.00290512293577194,0,
00:00:01.059,-0.00108911097049713,0.00289978086948395,0,
00:00:01.06,-0.00110035389661789,0.00289345532655716,0,
00:00:01.061,-0.00110039860010147,0.00288847088813782,0,
00:00:01.062,-0.00109525769948959,0.00287908315658569,0,
00:00:01.063,-0.00110140442848206,0.00287103652954102,0,
00:00:01.064,-0.00110683590173721,0.00286835432052612,0,
00:00:01.065,-0.00110401958227158,0.00286417454481125,0,
00:00:01.066,-0.00110223144292831,0.00285132229328156,0,
00:00:01.067,-0.00109711289405823,0.0028323233127594,0,
00:00:01.068,-0.00109738111495972,0.00281091034412384,0,
00:00:01.069,-0.00109704583883286,0.00280469655990601,0,
00:00:01.07,-0.0010937824845314,0.00280827283859253,0,
00:00:01.071,-0.00109107792377472,0.00281325727701187,0,
00:00:01.072,-0.00109181553125381,0.00282302498817444,0,
00:00:01.073,-0.00108915567398071,0.0028412863612175,0,
00:00:01.074,-0.00108305364847183,0.00288350880146027,0,
00:00:01.075,-0.00108468532562256,0.00292396545410156,0,
00:00:01.076,-0.00109197199344635,0.00293934345245361,0,
00:00:01.077,-0.00109633058309555,0.00293554365634918,0,
00:00:01.078,-0.00109566003084183,0.00291857868432999,0,
00:00:01.079,-0.00109818577766418,0.00290434062480927,0,
00:00:01.08,-0.00110019743442535,0.00289886444807053,0,
00:00:01.081,-0.00109671056270599,0.0029013454914093,0,
00:00:01.082,-0.00109286606311798,0.0029010996222496,0,
00:00:01.083,-0.00109304487705231,0.00289611518383026,0,
00:00:01.084,-0.00109528005123138,0.00289144366979599,0,
00:00:01.085,-0.00109465420246124,0.00288905203342438,0,
00:00:01.086,-0.00109487771987915,0.00288746505975723,0,
00:00:01.087,-0.00109143555164337,0.00288122892379761,0,
00:00:01.088,-0.00109543651342392,0.00287146121263504,0,
00:00:01.089,-0.00110241025686264,0.00286330282688141,0,
00:00:01.09,-0.00110654532909393,0.0028512105345726,0,
00:00:01.091,-0.00110761821269989,0.00284506380558014,0,
00:00:01.092,-0.00111490488052368,0.00284691900014877,0,
00:00:01.093,-0.00111738592386246,0.00285393744707108,0,
00:00:01.094,-0.0011075958609581,0.00286220759153366,0,
00:00:01.095,-0.00108381360769272,0.00287054479122162,0,
00:00:01.096,-0.00107292830944061,0.00287738442420959,0,
00:00:01.097,-0.00109376013278961,0.00288105010986328,0,
00:00:01.098,-0.00110797584056854,0.002879798412323,0,
00:00:01.099,-0.00111068040132523,0.00287161767482758,0,
00:00:01.1,-0.0011088028550148,0.00286354869604111,0,
00:00:01.101,-0.00111262500286102,0.00285963714122772,0,
00:00:01.102,-0.00111472606658936,0.00285760313272476,0,
00:00:01.103,-0.00111392140388489,0.00285697728395462,0,
00:00:01.104,-0.00110303610563278,0.0028613805770874,0,
00:00:01.105,-0.00109682232141495,0.00286734849214554,0,
00:00:01.106,-0.00110413134098053,0.00287646800279617,0,
00:00:01.107,-0.00110835582017899,0.00288138538599014,0,
00:00:01.108,-0.00110846757888794,0.00287821143865585,0,
00:00:01.109,-0.00110911577939987,0.00287260115146637,0,
00:00:01.11,-0.00110498070716858,0.00286491215229034,0,
00:00:01.111,-0.00109615176916122,0.00285619497299194,0,
00:00:01.112,-0.00109903514385223,0.00285360217094421,0,
00:00:01.113,-0.00110091269016266,0.00285552442073822,0,
00:00:01.114,-0.0010947659611702,0.00285977125167847,0,
00:00:01.115,-0.00108296424150467,0.00286294519901276,0,
00:00:01.116,-0.00108571350574493,0.00285977125167847,0,
00:00:01.117,-0.00108638405799866,0.00285592675209045,0,
00:00:01.118,-0.00109463185071945,0.00285881012678146,0,
00:00:01.119,-0.00109436362981796,0.00287295877933502,0,
00:00:01.12,-0.00109387189149857,0.00287870317697525,0,
00:00:01.121,-0.0010918602347374,0.00286770612001419,0,
00:00:01.122,-0.00109002739191055,0.00286222994327545,0,
00:00:01.123,-0.00108946859836578,0.00286748260259628,0,
00:00:01.124,-0.00108738988637924,0.00287148356437683,0,
00:00:01.125,-0.00108392536640167,0.00287146121263504,0,
00:00:01.126,-0.00108171254396439,0.00287367403507233,0,
00:00:01.127,-0.00108247250318527,0.00287215411663055,0,
00:00:01.128,-0.00108327716588974,0.00287695974111557,0,
00:00:01.129,-0.00108332186937332,0.00287566334009171,0,
00:00:01.13,-0.00108325481414795,0.00286868959665298,0,
00:00:01.131,-0.00108394771814346,0.00286614149808884,0,
00:00:01.132,-0.00108946859836578,0.00286312401294708,0,
00:00:01.133,-0.00109525769948959,0.00285438448190689,0,
00:00:01.134,-0.00110095739364624,0.00284714251756668,0,
00:00:01.135,-0.00110672414302826,0.0028451532125473,0,
00:00:01.136,-0.00110761821269989,0.00284171104431152,0,
00:00:01.137,-0.00110692530870438,0.00284410268068314,0,
00:00:01.138,-0.00110502541065216,0.00285337865352631,0,
00:00:01.139,-0.00110410898923874,0.00286133587360382,0,
00:00:01.14,-0.00109829753637314,0.00287345051765442,0,
00:00:01.141,-0.00109302252531052,0.00288581103086472,0,
00:00:01.142,-0.00108855217695236,0.00289428234100342,0,
00:00:01.143,-0.00109141319990158,0.00289613753557205,0,
00:00:01.144,-0.00110296905040741,0.00288719683885574,0,
00:00:01.145,-0.00110951811075211,0.00287329405546188,0,
00:00:01.146,-0.00111199915409088,0.00286345928907394,0,
00:00:01.147,-0.00111819058656693,0.00286037474870682,0,
00:00:01.148,-0.00111814588308334,0.00285990536212921,0,
00:00:01.149,-0.00111255794763565,0.00286100059747696,0,
00:00:01.15,-0.00110513716936111,0.00286144763231277,0,
00:00:01.151,-0.00109816342592239,0.00286330282688141,0,
00:00:01.152,-0.0010911226272583,0.00287041068077087,0,
00:00:01.153,-0.00107952207326889,0.00287126004695892,0,
00:00:01.154,-0.0010739341378212,0.00285749137401581,0,
00:00:01.155,-0.00107867270708084,0.002845399081707,0,
00:00:01.156,-0.00108338892459869,0.00284378975629807,0,
00:00:01.157,-0.00108419358730316,0.00284209102392197,0,
00:00:01.158,-0.00107979029417038,0.00284124165773392,0,
00:00:01.159,-0.00107789039611816,0.00285033881664276,0,
00:00:01.16,-0.00108068436384201,0.00286504626274109,0,
00:00:01.161,-0.00108497589826584,0.00287852436304092,0,
00:00:01.162,-0.001090407371521,0.00288308411836624,0,
00:00:01.163,-0.00109659880399704,0.00287528336048126,0,
00:00:01.164,-0.00109905749559402,0.00287362933158875,0,
00:00:01.165,-0.00110142678022385,0.00288127362728119,0,
00:00:01.166,-0.00110339373350143,0.00288688391447067,0,
00:00:01.167,-0.00109963864088058,0.00288362056016922,0,
00:00:01.168,-0.00109141319990158,0.00288257002830505,0,
00:00:01.169,-0.00109369307756424,0.00288310647010803,0,
00:00:01.17,-0.00109577178955078,0.00288370996713638,0,
00:00:01.171,-0.00109360367059708,0.0028824582695961,0,
00:00:01.172,-0.00109273195266724,0.00287964195013046,0,
00:00:01.173,-0.00109168142080307,0.00287660211324692,0,
00:00:01.174,-0.00109335780143738,0.00287365168333054,0,
00:00:01.175,-0.00108888745307922,0.00287003070116043,0,
00:00:01.176,-0.0010845959186554,0.00286571681499481,0,
00:00:01.177,-0.00109662115573883,0.00286424160003662,0,
00:00:01.178,-0.00110410898923874,0.00286419689655304,0,
00:00:01.179,-0.00110574066638947,0.00286296755075455,0,
00:00:01.18,-0.00110743939876556,0.00286075472831726,0,
00:00:01.181,-0.00110817700624466,0.00286010652780533,0,
00:00:01.182,-0.00110591948032379,0.00285892188549042,0,
00:00:01.183,-0.00109512358903885,0.00285878777503967,0,
00:00:01.184,-0.00109110027551651,0.00286008417606354,0,
00:00:01.185,-0.0010979175567627,0.0028611347079277,0,
00:00:01.186,-0.00110133737325668,0.00286111235618591,0,
00:00:01.187,-0.0011008009314537,0.00286372750997543,0,
00:00:01.188,-0.00110247731208801,0.00286708027124405,0,
00:00:01.189,-0.00109787285327911,0.00286801904439926,0,
00:00:01.19,-0.00108877569437027,0.00286752730607986,0,
00:00:01.191,-0.0010899156332016,0.00286980718374252,0,
00:00:01.192,-0.00109304487705231,0.00287088006734848,0,
00:00:01.193,-0.0010954812169075,0.00287210941314697,0,
00:00:01.194,-0.00109409540891647,0.00287351757287979,0,
00:00:01.195,-0.00108928978443146,0.00287479162216187,0,
00:00:01.196,-0.00108852982521057,0.00287463515996933,0,
00:00:01.197,-0.0010920837521553,0.00287483632564545,0,
00:00:01.198,-0.00109264254570007,0.00287488102912903,0,
00:00:01.199,-0.00109170377254486,0.00287539511919022,0,
00:00:01.2,-0.00109253078699112,0.00287414342164993,0,
00:00:01.201,-0.0010949894785881,0.00287193059921265,0,
00:00:01.202,-0.00109472125768661,0.00287094712257385,0,
00:00:01.203,-0.00109429657459259,0.00287195295095444,0,
00:00:01.204,-0.00109604001045227,0.00287260115146637,0,
00:00:01.205,-0.00109778344631195,0.00287293642759323,0,
00:00:01.206,-0.0010993480682373,0.00287248939275742,0,
00:00:01.207,-0.00110609829425812,0.0028737410902977,0,
00:00:01.208,-0.00111615657806396,0.00287389755249023,0,
00:00:01.209,-0.00111626833677292,0.00287456810474396,0,
00:00:01.21,-0.00111206620931625,0.00287429988384247,0,
00:00:01.211,-0.00110504776239395,0.00287450104951859,0,
00:00:01.212,-0.00109852105379105,0.00287517160177231,0,
00:00:01.213,-0.00109700113534927,0.00287526100873947,0,
00:00:01.214,-0.0010969340801239,0.00287351757287979,0,
00:00:01.215,-0.00109726935625076,0.0028717964887619,0,
00:00:01.216,-0.00109762698411942,0.00286967307329178,0,
00:00:01.217,-0.00109845399856567,0.00287079066038132,0,
00:00:01.218,-0.0010991245508194,0.00287304818630219,0,
00:00:01.219,-0.00110062211751938,0.00287181884050369,0,
00:00:01.22,-0.00110182911157608,0.0028713047504425,0,
00:00:01.221,-0.00110100209712982,0.00287208706140518,0,
00:00:01.222,-0.00109308958053589,0.00287166237831116,0,
00:00:01.223,-0.0010833665728569,0.00287152826786041,0,
00:00:01.224,-0.00108703225851059,0.00287148356437683,0,
00:00:01.225,-0.00108928978443146,0.00287255644798279,0,
00:00:01.226,-0.00109255313873291,0.00287463515996933,0,
00:00:01.227,-0.00109492242336273,0.00287588685750961,0,
00:00:01.228,-0.00109606236219406,0.00287666916847229,0,
00:00:01.229,-0.00109416246414185,0.00287579745054245,0,
00:00:01.23,-0.00109371542930603,0.00287076830863953,0,
00:00:01.231,-0.00109481066465378,0.00286564975976944,0,
00:00:01.232,-0.0011020302772522,0.00286359339952469,0,
00:00:01.233,-0.00110793113708496,0.00286576151847839,0,
00:00:01.234,-0.00110585242509842,0.00286759436130524,0,
00:00:01.235,-0.00110381841659546,0.00286830961704254,0,
00:00:01.236,-0.00110272318124771,0.00287186354398727,0,
00:00:01.237,-0.00110366195440292,0.00287606567144394,0,
00:00:01.238,-0.00110654532909393,0.00287765264511108,0,
00:00:01.239,-0.00110694766044617,0.00287792086601257,0,
00:00:01.24,-0.00110665708780289,0.00287863612174988,0,
00:00:01.241,-0.00110500305891037,0.0028795525431633,0,
00:00:01.242,-0.00110066682100296,0.00287993252277374,0,
00:00:01.243,-0.00109530240297318,0.00288073718547821,0,
00:00:01.244,-0.00108906626701355,0.00288257002830505,0,
00:00:01.245,-0.00108564645051956,0.00288163125514984,0,
00:00:01.246,-0.00108419358730316,0.00287944078445435,0,
00:00:01.247,-0.00108271837234497,0.0028790608048439,0,
00:00:01.248,-0.00108318775892258,0.00287964195013046,0,
00:00:01.249,-0.00108640640974045,0.00288134068250656,0,
00:00:01.25,-0.00109058618545532,0.0028814971446991,0,
00:00:01.251,-0.00109516829252243,0.00287885963916779,0,
00:00:01.252,-0.00109820812940598,0.00287461280822754,0,
00:00:01.253,-0.00109950453042984,0.00287202000617981,0,
00:00:01.254,-0.00109722465276718,0.00287244468927383,0,
00:00:01.255,-0.00109753757715225,0.00287505984306335,0,
00:00:01.256,-0.00109932571649551,0.00287617743015289,0,
00:00:01.257,-0.00109916925430298,0.00287472456693649,0,
00:00:01.258,-0.00110086798667908,0.00286853313446045,0,
00:00:01.259,-0.0011008232831955,0.00286880135536194,0,
00:00:01.26,-0.00109849870204926,0.00287273526191711,0,
00:00:01.261,-0.00109706819057465,0.00287530571222305,0,
00:00:01.262,-0.00109695643186569,0.00287722796201706,0,
00:00:01.263,-0.00109885632991791,0.00287794321775436,0,
00:00:01.264,-0.00110160559415817,0.00288064777851105,0,
00:00:01.265,-0.00110397487878799,0.00288545340299606,0,
00:00:01.266,-0.00110453367233276,0.00288809090852737,0,
00:00:01.267,-0.00110375136137009,0.00288603454828262,0,
00:00:01.268,-0.00110393017530441,0.00288138538599014,0,
00:00:01.269,-0.00110553950071335,0.00287754088640213,0,
00:00:01.27,-0.00110667943954468,0.00287485867738724,0,
00:00:01.271,-0.00110788643360138,0.00287414342164993,0,
00:00:01.272,-0.00110826641321182,0.0028737410902977,0,
00:00:01.273,-0.00110978633165359,0.00287586450576782,0,
00:00:01.274,-0.0011100098490715,0.00287964195013046,0,
00:00:01.275,-0.00111034512519836,0.00288344174623489,0,
00:00:01.276,-0.00111059099435806,0.00289412587881088,0,
00:00:01.277,-0.0011095404624939,0.00289463996887207,0,
00:00:01.278,-0.00111005455255508,0.00288578867912292,0,
00:00:01.279,-0.00111056864261627,0.00288303941488266,0,
00:00:01.28,-0.00110891461372375,0.00288274884223938,0,
00:00:01.281,-0.00110520422458649,0.00288328528404236,0,
00:00:01.282,-0.00110118091106415,0.00288290530443192,0,
00:00:01.283,-0.0010986328125,0.00288201123476028,0,
00:00:01.284,-0.00110015273094177,0.00288252532482147,0,
00:00:01.285,-0.00110071152448654,0.00288250297307968,0,
00:00:01.286,-0.00110267847776413,0.00288297235965729,0,
00:00:01.287,-0.00110594183206558,0.00288569927215576,0,
00:00:01.288,-0.00110732764005661,0.00288590043783188,0,
00:00:01.289,-0.00110591948032379,0.00288449227809906,0,
00:00:01.29,-0.00110764056444168,0.00288219004869461,0,
00:00:01.291,-0.00111043453216553,0.00288122892379761,0,
00:00:01.292,-0.00111280381679535,0.00288129597902298,0,
00:00:01.293,-0.0011124461889267,0.00287975370883942,0,
00:00:01.294,-0.00111097097396851,0.00287774205207825,0,
00:00:01.295,-0.00111056864261627,0.00287315994501114,0,
00:00:01.296,-0.00111222267150879,0.00287099182605743,0,
00:00:01.297,-0.00111307203769684,0.00286891311407089,0,
00:00:01.298,-0.00111401081085205,0.00286757200956345,0,
00:00:01.299,-0.00111425668001175,0.00287023186683655,0,
00:00:01.3,-0.00111304968595505,0.00287362933158875,0,
00:00:01.301,-0.00111123919487,0.0028785914182663,0,
00:00:01.302,-0.00110962986946106,0.00288165360689163,0,
00:00:01.303,-0.00110828876495361,0.00288328528404236,0,
00:00:01.304,-0.00110902637243271,0.00288364291191101,0,
00:00:01.305,-0.00110853463411331,0.00288362056016922,0,
00:00:01.306,-0.00110768526792526,0.00288527458906174,0,
00:00:01.307,-0.00111231207847595,0.00288402289152145,0,
00:00:01.308,-0.00111638009548187,0.00288283824920654,0,
00:00:01.309,-0.00111707299947739,0.00288243591785431,0,
00:00:01.31,-0.00111749768257141,0.00288145244121552,0,
00:00:01.311,-0.00111912935972214,0.00288138538599014,0,
00:00:01.312,-0.00112174451351166,0.00287986546754837,0,
00:00:01.313,-0.00112152099609375,0.00287707149982452,0,
00:00:01.314,-0.00112214684486389,0.00287575274705887,0,
00:00:01.315,-0.00112534314393997,0.00287434458732605,0,
00:00:01.316,-0.00112706422805786,0.0028722882270813,0,
00:00:01.317,-0.00112610310316086,0.00286967307329178,0,
00:00:01.318,-0.0011259913444519,0.00286927074193954,0,
00:00:01.319,-0.00112822651863098,0.00287054479122162,0,
00:00:01.32,-0.00113376975059509,0.00287680327892303,0,
00:00:01.321,-0.00113464146852493,0.00287999957799912,0,
00:00:01.322,-0.00113432854413986,0.00288288295269012,0,
00:00:01.323,-0.00112751126289368,0.00288983434438705,0,
00:00:01.324,-0.00112243741750717,0.00289305299520493,0,
00:00:01.325,-0.00112176686525345,0.00289242714643478,0,
00:00:01.326,-0.00111812353134155,0.00288887321949005,0,
00:00:01.327,-0.0011158213019371,0.00288956612348557,0,
00:00:01.328,-0.00111595541238785,0.00289113074541092,0,
00:00:01.329,-0.00111908465623856,0.00288753211498261,0,
00:00:01.33,-0.00112433731555939,0.00288386642932892,0,
00:00:01.331,-0.00112415850162506,0.00288576632738113,0,
00:00:01.332,-0.00112214684486389,0.00289274007081985,0,
00:00:01.333,-0.0011243149638176,0.00289175659418106,0,
00:00:01.334,-0.00112612545490265,0.00289151072502136,0,
00:00:01.335,-0.00113135576248169,0.00289242714643478,0,
00:00:01.336,-0.00113750249147415,0.0028914213180542,0,
00:00:01.337,-0.00113973766565323,0.00289012491703033,0,
00:00:01.338,-0.00113953649997711,0.00288911908864975,0,
00:00:01.339,-0.00113611668348312,0.00288838148117065,0,
00:00:01.34,-0.00112002342939377,0.00288753211498261,0,
00:00:01.341,-0.00110480189323425,0.00288831442594528,0,
00:00:01.342,-0.00110743939876556,0.00288556516170502,0,
00:00:01.343,-0.00111327320337296,0.00288219004869461,0,
00:00:01.344,-0.00111577659845352,0.00288022309541702,0,
00:00:01.345,-0.00111874938011169,0.00288020074367523,0,
00:00:01.346,-0.00112138688564301,0.00287801027297974,0,
00:00:01.347,-0.00112225860357285,0.00287608802318573,0,
00:00:01.348,-0.00112324208021164,0.00287436693906784,0,
00:00:01.349,-0.00112304091453552,0.00286589562892914,0,
00:00:01.35,-0.00112080574035645,0.00285523384809494,0,
00:00:01.351,-0.00112152099609375,0.002853624522686,0,
00:00:01.352,-0.00112359970808029,0.00285936892032623,0,
00:00:01.353,-0.00112207978963852,0.00287076830863953,0,
00:00:01.354,-0.00112447142601013,0.00287224352359772,0,
00:00:01.355,-0.00113314390182495,0.00286880135536194,0,
00:00:01.356,-0.00113696604967117,0.00286801904439926,0,
00:00:01.357,-0.00113712251186371,0.00287273526191711,0,
00:00:01.358,-0.00113656371831894,0.00287957489490509,0,
00:00:01.359,-0.00113692134618759,0.0028860792517662,0,
00:00:01.36,-0.00113649666309357,0.0028887614607811,0,
00:00:01.361,-0.00113560259342194,0.00288232415914536,0,
00:00:01.362,-0.00113634020090103,0.00288145244121552,0,
00:00:01.363,-0.00113703310489655,0.0028829500079155,0,
00:00:01.364,-0.00113830715417862,0.00289048254489899,0,
00:00:01.365,-0.00114013999700546,0.00290011614561081,0,
00:00:01.366,-0.00113231688737869,0.0029023066163063,0,
00:00:01.367,-0.00112596899271011,0.00289533287286758,0,
00:00:01.368,-0.00113131105899811,0.0028894767165184,0,
00:00:01.369,-0.00112786889076233,0.00288822501897812,0,
00:00:01.37,-0.00111642479896545,0.0028882697224617,0,
00:00:01.371,-0.00111886113882065,0.0028887614607811,0,
00:00:01.372,-0.00112538784742355,0.0028885155916214,0,
00:00:01.373,-0.00112932175397873,0.00288674980401993,0,
00:00:01.374,-0.0011313334107399,0.00288663804531097,0,
00:00:01.375,-0.00113202631473541,0.00288853794336319,0,
00:00:01.376,-0.00113493204116821,0.00289168953895569,0,
00:00:01.377,-0.00113759189844131,0.00289300829172134,0,
00:00:01.378,-0.00113844126462936,0.00289079546928406,0,
00:00:01.379,-0.00113895535469055,0.00288842618465424,0,
00:00:01.38,-0.00113564729690552,0.00288719683885574,0,
00:00:01.381,-0.00113126635551453,0.00288670510053635,0,
00:00:01.382,-0.00113017112016678,0.00288645923137665,0,
00:00:01.383,-0.00112581253051758,0.0028858557343483,0,
00:00:01.384,-0.00112304091453552,0.00288355350494385,0,
00:00:01.385,-0.00112427026033401,0.00288301706314087,0,
00:00:01.386,-0.00112467259168625,0.00288259238004684,0,
00:00:01.387,-0.00112040340900421,0.00287832319736481,0,
00:00:01.388,-0.00111756473779678,0.00286759436130524,0,
00:00:01.389,-0.00111901760101318,0.00285518914461136,0,
00:00:01.39,-0.00112498551607132,0.00284231454133987,0,
00:00:01.391,-0.00112804770469666,0.00283341854810715,0,
00:00:01.392,-0.00113003700971603,0.00283160805702209,0,
00:00:01.393,-0.00113260746002197,0.00283672660589218,0,
00:00:01.394,-0.00113347917795181,0.00284332036972046,0,
00:00:01.395,-0.00113256275653839,0.00284696370363235,0,
00:00:01.396,-0.00113414973020554,0.00285270810127258,0,
00:00:01.397,-0.00113716721534729,0.00285816192626953,0,
00:00:01.398,-0.00113940238952637,0.00286777317523956,0,
00:00:01.399,-0.00114378333091736,0.00288127362728119,0,
00:00:01.4,-0.00114733725786209,0.00289294123649597,0,
00:00:01.401,-0.00114762783050537,0.00290688872337341,0,
00:00:01.402,-0.00114711374044418,0.00291484594345093,0,
00:00:01.403,-0.00114548206329346,0.00291674584150314,0,
00:00:01.404,-0.00113046169281006,0.00291506946086884,0,
00:00:01.405,-0.00112878531217575,0.00291118025779724,0,
00:00:01.406,-0.00113870948553085,0.00290541350841522,0,
00:00:01.407,-0.00114494562149048,0.00290101021528244,0,
00:00:01.408,-0.0011444091796875,0.00289584696292877,0,
00:00:01.409,-0.00114110112190247,0.00289535522460938,0,
00:00:01.41,-0.00114063173532486,0.00289461761713028,0,
00:00:01.411,-0.00113891065120697,0.00289128720760345,0,
00:00:01.412,-0.00113631784915924,0.00288786739110947,0,
00:00:01.413,-0.00113611668348312,0.00288458168506622,0,
00:00:01.414,-0.00113944709300995,0.00288315117359161,0,
00:00:01.415,-0.00114141404628754,0.00288060307502747,0,
00:00:01.416,-0.00114157050848007,0.00288031250238419,0,
00:00:01.417,-0.0011393129825592,0.00287830084562302,0,
00:00:01.418,-0.00113808363676071,0.00287718325853348,0,
00:00:01.419,-0.00113678723573685,0.00287836790084839,0,
00:00:01.42,-0.00113517791032791,0.00287879258394241,0,
00:00:01.421,-0.00113432854413986,0.00287897139787674,0,
00:00:01.422,-0.00113287568092346,0.00287917256355286,0,
00:00:01.423,-0.00113115459680557,0.00288008898496628,0,
00:00:01.424,-0.00113312155008316,0.00288082659244537,0,
00:00:01.425,-0.00113718956708908,0.00288234651088715,0,
00:00:01.426,-0.00113998353481293,0.00288243591785431,0,
00:00:01.427,-0.00113996118307114,0.00288185477256775,0,
00:00:01.428,-0.00113976001739502,0.00288257002830505,0,
00:00:01.429,-0.00113654136657715,0.00288138538599014,0,
00:00:01.43,-0.00113725662231445,0.00287202000617981,0,
00:00:01.431,-0.0011407881975174,0.0028623640537262,0,
00:00:01.432,-0.00114038586616516,0.00285601615905762,0,
00:00:01.433,-0.00114208459854126,0.00285306572914124,0,
00:00:01.434,-0.00114279985427856,0.00285147875547409,0,
00:00:01.435,-0.0011441633105278,0.00284969061613083,0,
00:00:01.436,-0.00114456564188004,0.00285380333662033,0,
00:00:01.437,-0.00115212053060532,0.00286249816417694,0,
00:00:01.438,-0.00116830319166183,0.00288118422031403,0,
00:00:01.439,-0.00117203593254089,0.00289595872163773,0,
00:00:01.44,-0.00117460638284683,0.00290246307849884,0,
00:00:01.441,-0.00117903202772141,0.00289705395698547,0,
00:00:01.442,-0.00117999315261841,0.00289106369018555,0,
00:00:01.443,-0.00117208063602448,0.00288853794336319,0,
00:00:01.444,-0.00116405636072159,0.00288918614387512,0,
00:00:01.445,-0.00115994364023209,0.00288891792297363,0,
00:00:01.446,-0.00115708261728287,0.00288925319910049,0,
00:00:01.447,-0.00115853548049927,0.00288451462984085,0,
00:00:01.448,-0.00115410983562469,0.0028773620724678,0,
00:00:01.449,-0.00114400684833527,0.00287119299173355,0,
00:00:01.45,-0.00114152580499649,0.00286723673343658,0,
00:00:01.451,-0.00114288926124573,0.00286433100700378,0,
00:00:01.452,-0.00112956762313843,0.00286522507667542,0,
00:00:01.453,-0.00112082809209824,0.00286982953548431,0,
00:00:01.454,-0.00111474841833115,0.0028737410902977,0,
00:00:01.455,-0.00111924111843109,0.00288169831037521,0,
00:00:01.456,-0.00113148987293243,0.00289303064346313,0,
00:00:01.457,-0.00113647431135178,0.00289508700370789,0,
00:00:01.458,-0.0011376366019249,0.00288612395524979,0,
00:00:01.459,-0.00113696604967117,0.00288022309541702,0,
00:00:01.46,-0.0011364072561264,0.00287733972072601,0,
00:00:01.461,-0.00113794952630997,0.00287901610136032,0,
00:00:01.462,-0.00113743543624878,0.00288388878107071,0,
00:00:01.463,-0.00113837420940399,0.00288683921098709,0,
00:00:01.464,-0.00114543735980988,0.00288406759500504,0,
00:00:01.465,-0.00115203112363815,0.00288288295269012,0,
00:00:01.466,-0.00115614384412766,0.00288379937410355,0,
00:00:01.467,-0.00115504860877991,0.00288527458906174,0,
00:00:01.468,-0.00115214288234711,0.00288489460945129,0,
00:00:01.469,-0.00115212053060532,0.0028858557343483,0,
00:00:01.47,-0.00115270167589188,0.00288379937410355,0,
00:00:01.471,-0.0011502206325531,0.00288020074367523,0,
00:00:01.472,-0.00114539265632629,0.00287908315658569,0,
00:00:01.473,-0.0011400505900383,0.00287899374961853,0,
00:00:01.474,-0.00114539265632629,0.00287877023220062,0,
00:00:01.475,-0.00114834308624268,0.00287868082523346,0,
00:00:01.476,-0.00114747136831284,0.00287919491529465,0,
00:00:01.477,-0.00114583969116211,0.00287910550832748,0,
00:00:01.478,-0.00114686787128448,0.00287716090679169,0,
00:00:01.479,-0.00114872306585312,0.00287501513957977,0,
00:00:01.48,-0.00115019828081131,0.00287280231714249,0,
00:00:01.481,-0.00114990770816803,0.00287199765443802,0,
00:00:01.482,-0.00114456564188004,0.00287101417779922,0,
00:00:01.483,-0.00114317983388901,0.00286781787872314,0,
00:00:01.484,-0.0011456161737442,0.00286504626274109,0,
00:00:01.485,-0.00114718079566956,0.00286133587360382,0,
00:00:01.486,-0.00114747136831284,0.00286189466714859,0,
00:00:01.487,-0.00114695727825165,0.00286433100700378,0,
00:00:01.488,-0.00114606320858002,0.0028638169169426,0,
00:00:01.489,-0.00114423036575317,0.00286097824573517,0,
00:00:01.49,-0.00114575028419495,0.00286256521940231,0,
00:00:01.491,-0.00115296989679337,0.00285615026950836,0,
00:00:01.492,-0.00115623325109482,0.00284146517515183,0,
00:00:01.493,-0.00115761905908585,0.00283797830343246,0,
00:00:01.494,-0.00115837901830673,0.00283775478601456,0,
00:00:01.495,-0.0011579766869545,0.00283699482679367,0,
00:00:01.496,-0.00116090476512909,0.00284537672996521,0,
00:00:01.497,-0.00116351991891861,0.00285863131284714,0,
00:00:01.498,-0.00116153061389923,0.00288429111242294,0,
00:00:01.499,-0.0011514276266098,0.00291670113801956,0,
00:00:01.5,-0.00115285813808441,0.00292921811342239,0,
00:00:01.501,-0.00116155296564102,0.00292186439037323,0,
00:00:01.502,-0.00116555392742157,0.0029103085398674,0,
00:00:01.503,-0.00116691738367081,0.00290020555257797,0,
00:00:01.504,-0.00116622447967529,0.00289443880319595,0,
00:00:01.505,-0.00116407871246338,0.00288793444633484,0,
00:00:01.506,-0.00115840137004852,0.00288279354572296,0,
00:00:01.507,-0.00115120410919189,0.00287921726703644,0,
00:00:01.508,-0.00114677846431732,0.00287517160177231,0,
00:00:01.509,-0.0011480301618576,0.00287036597728729,0,
00:00:01.51,-0.00115131586790085,0.00286531448364258,0,
00:00:01.511,-0.00115415453910828,0.00286265462636948,0,
00:00:01.512,-0.00116334110498428,0.0028633251786232,0,
00:00:01.513,-0.00116866081953049,0.00286278873682022,0,
00:00:01.514,-0.0011698454618454,0.00286868959665298,0,
00:00:01.515,-0.00116946548223495,0.00288017839193344,0,
00:00:01.516,-0.0011659562587738,0.00288641452789307,0,
00:00:01.517,-0.00116443634033203,0.00288710743188858,0,
00:00:01.518,-0.00116667151451111,0.00288925319910049,0,
00:00:01.519,-0.00116486102342606,0.00289443880319595,0,
00:00:01.52,-0.00116065889596939,0.00289463996887207,0,
00:00:01.521,-0.00116030126810074,0.00289222598075867,0,
00:00:01.522,-0.00116470456123352,0.00288768857717514,0,
00:00:01.523,-0.00116763263940811,0.0028805136680603,0,
00:00:01.524,-0.00116736441850662,0.00287711620330811,0,
00:00:01.525,-0.00116617977619171,0.00288071483373642,0,
00:00:01.526,-0.00116640329360962,0.00288592278957367,0,
00:00:01.527,-0.00116778910160065,0.0028902143239975,0,
00:00:01.528,-0.0011688619852066,0.00289490818977356,0,
00:00:01.529,-0.00117163360118866,0.00290342420339584,0,
00:00:01.53,-0.00117053836584091,0.00290094316005707,0,
00:00:01.531,-0.00116734206676483,0.00289452821016312,0,
00:00:01.532,-0.00116629153490067,0.00289095193147659,0,
00:00:01.533,-0.00117185711860657,0.00289016962051392,0,
00:00:01.534,-0.00117605924606323,0.00289050489664078,0,
00:00:01.535,-0.00117000192403793,0.00289106369018555,0,
00:00:01.536,-0.00115592032670975,0.00288679450750351,0,
00:00:01.537,-0.0011524111032486,0.00287812203168869,0,
00:00:01.538,-0.00116347521543503,0.00287038832902908,0,
00:00:01.539,-0.00117205828428268,0.00286750495433807,0,
00:00:01.54,-0.00117284059524536,0.00286763906478882,0,
00:00:01.541,-0.0011688619852066,0.00286835432052612,0,
00:00:01.542,-0.00117474049329758,0.00286826491355896,0,
00:00:01.543,-0.00118137896060944,0.00287742912769318,0,
00:00:01.544,-0.00117791444063187,0.00288813561201096,0,
00:00:01.545,-0.00117035955190659,0.00288634747266769,0,
00:00:01.546,-0.00116738677024841,0.00288574397563934,0,
00:00:01.547,-0.00116734206676483,0.00289244949817657,0,
00:00:01.548,-0.00116445869207382,0.00289931148290634,0,
00:00:01.549,-0.00115987658500671,0.00290116667747498,0,
00:00:01.55,-0.0011509582400322,0.00290033966302872,0,
00:00:01.551,-0.0011492595076561,0.00289890915155411,0,
00:00:01.552,-0.00115495920181274,0.00289665162563324,0,
00:00:01.553,-0.00116255879402161,0.00289434939622879,0,
00:00:01.554,-0.00116913020610809,0.00288645923137665,0,
00:00:01.555,-0.00117000192403793,0.00288435816764832,0,
00:00:01.556,-0.00117011368274689,0.00288310647010803,0,
00:00:01.557,-0.00117145478725433,0.00287798792123795,0,
00:00:01.558,-0.00116901844739914,0.00287170708179474,0,
00:00:01.559,-0.00116526335477829,0.00286746025085449,0,
00:00:01.56,-0.00116220116615295,0.00286933779716492,0,
00:00:01.561,-0.00116284936666489,0.00287436693906784,0,
00:00:01.562,-0.00116503983736038,0.00287897139787674,0,
00:00:01.563,-0.00116895139217377,0.00288505107164383,0,
00:00:01.564,-0.00117330998182297,0.00288929790258408,0,
00:00:01.565,-0.00117892026901245,0.00289274007081985,0,
00:00:01.566,-0.00118477642536163,0.00288983434438705,0,
00:00:01.567,-0.0011858269572258,0.00288835912942886,0,
00:00:01.568,-0.00119177252054214,0.00288813561201096,0,
00:00:01.569,-0.0011996403336525,0.00288987904787064,0,
00:00:01.57,-0.00119613111019135,0.00289316475391388,0,
00:00:01.571,-0.00119040906429291,0.00289591401815414,0,
00:00:01.572,-0.00118669867515564,0.00289665162563324,0,
00:00:01.573,-0.00118131190538406,0.00289788097143173,0,
00:00:01.574,-0.00117228180170059,0.00289707630872726,0,
00:00:01.575,-0.00116611272096634,0.00289195775985718,0,
00:00:01.576,-0.00116307288408279,0.00288587808609009,0,
00:00:01.577,-0.00115717202425003,0.00288332998752594,0,
00:00:01.578,-0.0011565238237381,0.00288198888301849,0,
00:00:01.579,-0.00115853548049927,0.00288286060094833,0,
00:00:01.58,-0.00115694850683212,0.00288652628660202,0,
00:00:01.581,-0.00115717202425003,0.00288860499858856,0,
00:00:01.582,-0.0011584460735321,0.00288764387369156,0,
00:00:01.583,-0.00116267055273056,0.00288362056016922,0,
00:00:01.584,-0.00116881728172302,0.00287389755249023,0,
00:00:01.585,-0.00117449462413788,0.00286730378866196,0,
00:00:01.586,-0.00117836147546768,0.00286191701889038,0,
00:00:01.587,-0.00118236243724823,0.00286028534173965,0,
00:00:01.588,-0.00118464231491089,0.00286334753036499,0,
00:00:01.589,-0.00118511170148849,0.00286616384983063,0,
00:00:01.59,-0.00119027495384216,0.00287070125341415,0,
00:00:01.591,-0.00119563937187195,0.00288145244121552,0,
00:00:01.592,-0.00118846446275711,0.00288701802492142,0,
00:00:01.593,-0.00117319822311401,0.00287418812513351,0,
00:00:01.594,-0.00116615742444992,0.002859927713871,0,
00:00:01.595,-0.0011727511882782,0.00285813957452774,0,
00:00:01.596,-0.00117719918489456,0.00286471098661423,0,
00:00:01.597,-0.00114919245243073,0.00286880135536194,0,
00:00:01.598,-0.00113571435213089,0.00286759436130524,0,
00:00:01.599,-0.00115540623664856,0.00287117063999176,0,
00:00:01.6,-0.00116387754678726,0.00288332998752594,0,
00:00:01.601,-0.00116866081953049,0.00288800150156021,0,
00:00:01.602,-0.0011732205748558,0.0028860792517662,0,
00:00:01.603,-0.00117427110671997,0.00289392471313477,0,
00:00:01.604,-0.00117567926645279,0.00290501117706299,0,
00:00:01.605,-0.00117965787649155,0.00291111320257187,0,
00:00:01.606,-0.00118160247802734,0.0029146671295166,0,
00:00:01.607,-0.00118061900138855,0.00291978567838669,0,
00:00:01.608,-0.00117813795804977,0.00292143970727921,0,
00:00:01.609,-0.00117563456296921,0.00291227549314499,0,
00:00:01.61,-0.00117020308971405,0.00289669632911682,0,
00:00:01.611,-0.00116535276174545,0.0028909295797348,0,
00:00:01.612,-0.00116059184074402,0.00289090722799301,0,
00:00:01.613,-0.00115630030632019,0.00289128720760345,0,
00:00:01.614,-0.00115390866994858,0.00289189070463181,0,
00:00:01.615,-0.00115406513214111,0.00289524346590042,0,
00:00:01.616,-0.00115656852722168,0.00290163606405258,0,
00:00:01.617,-0.00116103887557983,0.00290228426456451,0,
00:00:01.618,-0.00116577744483948,0.00289709866046906,0,
00:00:01.619,-0.00116767734289169,0.00289452821016312,0,
00:00:01.62,-0.00117002427577972,0.00289396941661835,0,
00:00:01.621,-0.00117116421461105,0.00289459526538849,0,
00:00:01.622,-0.00117364525794983,0.00289430469274521,0,
00:00:01.623,-0.00117798149585724,0.00289390236139297,0,
00:00:01.624,-0.00118446350097656,0.00289401412010193,0,
00:00:01.625,-0.00118377059698105,0.00289519876241684,0,
00:00:01.626,-0.00117842853069305,0.00289479643106461,0,
00:00:01.627,-0.00117746740579605,0.00289300829172134,0,
00:00:01.628,-0.001177579164505,0.00289379060268402,0,
00:00:01.629,-0.00117670744657516,0.00289394706487656,0,
00:00:01.63,-0.00117411464452744,0.00289452821016312,0,
00:00:01.631,-0.00117304176092148,0.00289611518383026,0,
00:00:01.632,-0.00117697566747665,0.0028967410326004,0,
00:00:01.633,-0.00118126720190048,0.00289636105298996,0,
00:00:01.634,-0.00117965787649155,0.0028926283121109,0,
00:00:01.635,-0.00117847323417664,0.00288797914981842,0,
00:00:01.636,-0.00118079781532288,0.00288581103086472,0,
00:00:01.637,-0.00117847323417664,0.00288377702236176,0,
00:00:01.638,-0.00117357820272446,0.00287988781929016,0,
00:00:01.639,-0.00116841495037079,0.00287633389234543,0,
00:00:01.64,-0.00116937607526779,0.00287251174449921,0,
00:00:01.641,-0.00117071717977524,0.00286611914634705,0,
00:00:01.642,-0.00117143243551254,0.00285820662975311,0,
00:00:01.643,-0.00117067247629166,0.00285328924655914,0,
00:00:01.644,-0.00117203593254089,0.00285907834768295,0,
00:00:01.645,-0.00117295235395432,0.00286585092544556,0,
00:00:01.646,-0.00117214769124985,0.0028756856918335,0,
00:00:01.647,-0.0011744499206543,0.00289081782102585,0,
00:00:01.648,-0.00117485225200653,0.00290552526712418,0,
00:00:01.649,-0.00117384642362595,0.00291424244642258,0,
00:00:01.65,-0.00117326527833939,0.00291558355093002,0,
00:00:01.651,-0.00117065012454987,0.00290653109550476,0,
00:00:01.652,-0.00116544216871262,0.00289779156446457,0,
00:00:01.653,-0.00116452574729919,0.00289242714643478,0,
00:00:01.654,-0.00116267055273056,0.00289448350667953,0,
00:00:01.655,-0.00116289407014847,0.00289475172758102,0,
00:00:01.656,-0.00116725265979767,0.00289227068424225,0,
00:00:01.657,-0.00117239356040955,0.00288954377174377,0,
00:00:01.658,-0.00117386877536774,0.0028858557343483,0,
00:00:01.659,-0.00117529928684235,0.00288552045822144,0,
00:00:01.66,-0.00117574632167816,0.00288661569356918,0,
00:00:01.661,-0.00117585808038712,0.00288878381252289,0,
00:00:01.662,-0.00117538869380951,0.00288737565279007,0,
00:00:01.663,-0.00116975605487823,0.00288111716508865,0,
00:00:01.664,-0.00116016715764999,0.00287501513957977,0,
00:00:01.665,-0.0011608824133873,0.00286927074193954,0,
00:00:01.666,-0.00116725265979767,0.00286616384983063,0,
00:00:01.667,-0.00116841495037079,0.00286220759153366,0,
00:00:01.668,-0.00116468220949173,0.00286345928907394,0,
00:00:01.669,-0.00116376578807831,0.00287309288978577,0,
00:00:01.67,-0.00116629153490067,0.00288053601980209,0,
00:00:01.671,-0.00116810202598572,0.00289499759674072,0,
00:00:01.672,-0.00117011368274689,0.00290317833423615,0,
00:00:01.673,-0.00117382407188416,0.00290210545063019,0,
00:00:01.674,-0.00117628276348114,0.00289933383464813,0,
00:00:01.675,-0.0011761263012886,0.00289240479469299,0,
00:00:01.676,-0.00117487460374832,0.00288379937410355,0,
00:00:01.677,-0.00118059664964676,0.00288187712430954,0,
00:00:01.678,-0.0011928454041481,0.00288438051939011,0,
00:00:01.679,-0.00119765102863312,0.00288690626621246,0,
00:00:01.68,-0.00119566172361374,0.00288489460945129,0,
00:00:01.681,-0.00119087845087051,0.00288634747266769,0,
00:00:01.682,-0.00118602812290192,0.00289334356784821,0,
00:00:01.683,-0.00118339061737061,0.0028955340385437,0,
00:00:01.684,-0.00118032842874527,0.00289455056190491,0,
00:00:01.685,-0.00117809325456619,0.0028931200504303,0,
00:00:01.686,-0.00117572396993637,0.00289097428321838,0,
00:00:01.687,-0.00117315351963043,0.00289037078619003,0,
00:00:01.688,-0.00117330998182297,0.00289124250411987,0,
00:00:01.689,-0.00117310881614685,0.00289336591959,0,
00:00:01.69,-0.0011715441942215,0.002895288169384,0,
00:00:01.691,-0.00116756558418274,0.0028955340385437,0,
00:00:01.692,-0.00116396695375443,0.00289515405893326,0,
00:00:01.693,-0.00116119533777237,0.00289316475391388,0,
00:00:01.694,-0.00115750730037689,0.00289005786180496,0,
00:00:01.695,-0.00115368515253067,0.00288759917020798,0,
00:00:01.696,-0.00115261226892471,0.00288672745227814,0,
00:00:01.697,-0.00115697085857391,0.00288630276918411,0,
00:00:01.698,-0.00115518271923065,0.00288417935371399,0,
00:00:01.699,-0.00115741789340973,0.00288102775812149,0,
00:00:01.7,-0.00116425752639771,0.00288064777851105,0,
00:00:01.701,-0.00116767734289169,0.00287847965955734,0,
00:00:01.702,-0.00116926431655884,0.00287727266550064,0,
00:00:01.703,-0.00117402523756027,0.00287803262472153,0,
00:00:01.704,-0.001177579164505,0.00287932902574539,0,
00:00:01.705,-0.00117932260036469,0.00288138538599014,0,
00:00:01.706,-0.00117970257997513,0.00288451462984085,0,
00:00:01.707,-0.0011717900633812,0.00288670510053635,0,
00:00:01.708,-0.00116410106420517,0.0028865709900856,0,
00:00:01.709,-0.00116092711687088,0.00288864970207214,0,
00:00:01.71,-0.00116597861051559,0.00288176536560059,0,
00:00:01.711,-0.00116787850856781,0.0028754398226738,0,
00:00:01.712,-0.00116727501153946,0.00287421047687531,0,
00:00:01.713,-0.00116577744483948,0.00287982076406479,0,
00:00:01.714,-0.00116805732250214,0.00288909673690796,0,
00:00:01.715,-0.00117042660713196,0.00289271771907806,0,
00:00:01.716,-0.00117107480764389,0.00289244949817657,0,
00:00:01.717,-0.00117013603448868,0.00289032608270645,0,
00:00:01.718,-0.00116926431655884,0.00289059430360794,0,
00:00:01.719,-0.0011691078543663,0.00288965553045273,0,
00:00:01.72,-0.00117044895887375,0.00288321822881699,0,
00:00:01.721,-0.00117044895887375,0.00287763029336929,0,
00:00:01.722,-0.0011722594499588,0.00287213176488876,0,
00:00:01.723,-0.00117380172014236,0.00286982953548431,0,
00:00:01.724,-0.00117243826389313,0.00287472456693649,0,
00:00:01.725,-0.00116841495037079,0.00288201123476028,0,
00:00:01.726,-0.00116392225027084,0.00288692861795425,0,
00:00:01.727,-0.00116331875324249,0.00288871675729752,0,
00:00:01.728,-0.00116412341594696,0.00288860499858856,0,
00:00:01.729,-0.00116568803787231,0.00289034843444824,0,
00:00:01.73,-0.001169353723526,0.0028986856341362,0,
00:00:01.731,-0.00117172300815582,0.00289761275053024,0,
00:00:01.732,-0.0011708065867424,0.00288994610309601,0,
00:00:01.733,-0.00116785615682602,0.00288815796375275,0,
00:00:01.734,-0.00116629153490067,0.00288864970207214,0,
00:00:01.735,-0.00116609036922455,0.00289039313793182,0,
00:00:01.736,-0.00116546452045441,0.00288965553045273,0,
00:00:01.737,-0.00116407871246338,0.0028911754488945,0,
00:00:01.738,-0.00116188824176788,0.00288728624582291,0,
00:00:01.739,-0.00116103887557983,0.0028795525431633,0,
00:00:01.74,-0.00116454809904099,0.00287358462810516,0,
00:00:01.741,-0.00116617977619171,0.00287195295095444,0,
00:00:01.742,-0.0011654868721962,0.00287369638681412,0,
00:00:01.743,-0.001170314848423,0.00287517160177231,0,
00:00:01.744,-0.00117161124944687,0.00287758558988571,0,
00:00:01.745,-0.00117836147546768,0.00287897139787674,0,
00:00:01.746,-0.00118379294872284,0.00287691503763199,0,
00:00:01.747,-0.00118207186460495,0.00287635624408722,0,
00:00:01.748,-0.00117740035057068,0.00287771970033646,0,
00:00:01.749,-0.00117529928684235,0.00287769734859467,0,
00:00:01.75,-0.00117366760969162,0.00287456810474396,0,
00:00:01.751,-0.00117127597332001,0.00287226587533951,0,
00:00:01.752,-0.00117058306932449,0.00287315994501114,0,
00:00:01.753,-0.00117029249668121,0.00287505984306335,0,
00:00:01.754,-0.0011710524559021,0.00287789851427078,0,
00:00:01.755,-0.00117330998182297,0.00288069248199463,0,
00:00:01.756,-0.00116879492998123,0.00286904722452164,0,
00:00:01.757,-0.00116541981697083,0.00284861773252487,0,
00:00:01.758,-0.00116155296564102,0.00283464789390564,0,
00:00:01.759,-0.00115437805652618,0.00282758474349976,0,
00:00:01.76,-0.00115214288234711,0.00282445549964905,0,
00:00:01.761,-0.00115802139043808,0.00283931940793991,0,
00:00:01.762,-0.00115987658500671,0.00286576151847839,0,
00:00:01.763,-0.00116182118654251,0.00289041548967361,0,
00:00:01.764,-0.00116711854934692,0.00291140377521515,0,
00:00:01.765,-0.00117123126983643,0.00292392075061798,0,
00:00:01.766,-0.00116617977619171,0.00291989743709564,0,
00:00:01.767,-0.00116363167762756,0.00290559232234955,0,
00:00:01.768,-0.00117869675159454,0.00289631634950638,0,
00:00:01.769,-0.00119418650865555,0.00289137661457062,0,
00:00:01.77,-0.0011889785528183,0.00289088487625122,0,
00:00:01.771,-0.00117670744657516,0.00289298593997955,0,
00:00:01.772,-0.00116837024688721,0.0028994232416153,0,
00:00:01.773,-0.00116544216871262,0.00290360301733017,0,
00:00:01.774,-0.00116130709648132,0.00290078669786453,0,
00:00:01.775,-0.00115978717803955,0.00289419293403625,0,
00:00:01.776,-0.00115875899791718,0.00288853794336319,0,
00:00:01.777,-0.00114943832159042,0.00288163125514984,0,
00:00:01.778,-0.00114613026380539,0.00287725031375885,0,
00:00:01.779,-0.00115131586790085,0.00287467986345291,0,
00:00:01.78,-0.00114957243204117,0.00287251174449921,0,
00:00:01.781,-0.00114639848470688,0.00287537276744843,0,
00:00:01.782,-0.00114443153142929,0.00287839025259018,0,
00:00:01.783,-0.00114572793245316,0.00288395583629608,0,
00:00:01.784,-0.00114700198173523,0.00289126485586166,0,
00:00:01.785,-0.00114577263593674,0.00289669632911682,0,
00:00:01.786,-0.00114501267671585,0.00290130078792572,0,
00:00:01.787,-0.00114791840314865,0.00290925800800323,0,
00:00:01.788,-0.00115010887384415,0.00290443003177643,0,
00:00:01.789,-0.00114963948726654,0.00289593636989594,0,
00:00:01.79,-0.00115015357732773,0.00288891792297363,0,
00:00:01.791,-0.00115238875150681,0.00288594514131546,0,
00:00:01.792,-0.00115310400724411,0.00288596749305725,0,
00:00:01.793,-0.00115404278039932,0.00289063900709152,0,
00:00:01.794,-0.0011570155620575,0.00289363414049149,0,
00:00:01.795,-0.00115717202425003,0.00289347767829895,0,
00:00:01.796,-0.00115884840488434,0.00289063900709152,0,
00:00:01.797,-0.0011603906750679,0.00288853794336319,0,
00:00:01.798,-0.0011613517999649,0.00288896262645721,0,
00:00:01.799,-0.00115907192230225,0.00288775563240051,0,
00:00:01.8,-0.00115484744310379,0.00288976728916168,0,
00:00:01.801,-0.00115321576595306,0.00289133191108704,0,
00:00:01.802,-0.00115522742271423,0.00289081782102585,0,
00:00:01.803,-0.00115540623664856,0.002888023853302,0,
00:00:01.804,-0.00115513801574707,0.00288328528404236,0,
00:00:01.805,-0.00115672498941422,0.00288154184818268,0,
00:00:01.806,-0.00115726143121719,0.00288288295269012,0,
00:00:01.807,-0.00115728378295898,0.00288576632738113,0,
00:00:01.808,-0.00115779787302017,0.0028868168592453,0,
00:00:01.809,-0.0011584684252739,0.00288956612348557,0,
00:00:01.81,-0.00116034597158432,0.00289452821016312,0,
00:00:01.811,-0.00116271525621414,0.00290197134017944,0,
00:00:01.812,-0.0011652410030365,0.00290080904960632,0,
00:00:01.813,-0.00116720795631409,0.00289676338434219,0,
00:00:01.814,-0.00116957724094391,0.00289580225944519,0,
00:00:01.815,-0.00117172300815582,0.00289350003004074,0,
00:00:01.816,-0.00117228180170059,0.00288940966129303,0,
00:00:01.817,-0.00116962194442749,0.00288766622543335,0,
00:00:01.818,-0.00116309523582458,0.00288907438516617,0,
00:00:01.819,-0.00115656852722168,0.00289061665534973,0,
00:00:01.82,-0.00115455687046051,0.00289182364940643,0,
00:00:01.821,-0.00115466862916946,0.0028928741812706,0,
00:00:01.822,-0.00115455687046051,0.00289151072502136,0,
00:00:01.823,-0.00115261226892471,0.00289122015237808,0,
00:00:01.824,-0.00114843249320984,0.0028911754488945,0,
00:00:01.825,-0.00114550441503525,0.00289054960012436,0,
00:00:01.826,-0.0011470690369606,0.00288938730955124,0,
00:00:01.827,-0.00115214288234711,0.00288898497819901,0,
00:00:01.828,-0.00115571916103363,0.00288880616426468,0,
00:00:01.829,-0.00115592032670975,0.00288721919059753,0,
00:00:01.83,-0.00115352869033813,0.00288574397563934,0,
00:00:01.831,-0.00115377455949783,0.00288704037666321,0,
00:00:01.832,-0.00115690380334854,0.00288871675729752,0,
00:00:01.833,-0.00116121768951416,0.00288721919059753,0,
00:00:01.834,-0.00115998834371567,0.00288527458906174,0,
00:00:01.835,-0.00116007775068283,0.00288382172584534,0,
00:00:01.836,-0.00116144120693207,0.00288046896457672,0,
00:00:01.837,-0.00116018950939178,0.00287707149982452,0,
00:00:01.838,-0.00116106122732162,0.00287588685750961,0,
00:00:01.839,-0.00116130709648132,0.00287707149982452,0,
00:00:01.84,-0.00116130709648132,0.00287939608097076,0,
00:00:01.841,-0.00116103887557983,0.00288160890340805,0,
00:00:01.842,-0.0011623352766037,0.00288395583629608,0,
00:00:01.843,-0.00116273760795593,0.00288652628660202,0,
00:00:01.844,-0.00116204470396042,0.00288746505975723,0,
00:00:01.845,-0.00116255879402161,0.00288898497819901,0,
00:00:01.846,-0.00116483867168427,0.00289025902748108,0,
00:00:01.847,-0.00116483867168427,0.00288976728916168,0,
00:00:01.848,-0.00116508454084396,0.00289204716682434,0,
00:00:01.849,-0.0011737123131752,0.00289372354745865,0,
00:00:01.85,-0.00118216127157211,0.00289374589920044,0,
00:00:01.851,-0.00118249654769897,0.00289202481508255,0,
00:00:01.852,-0.00117717683315277,0.00288612395524979,0,
00:00:01.853,-0.00116767734289169,0.00288120657205582,0,
00:00:01.854,-0.00115934014320374,0.00287991017103195,0,
00:00:01.855,-0.001154825091362,0.00287863612174988,0,
00:00:01.856,-0.00115663558244705,0.00287841260433197,0,
00:00:01.857,-0.00115936249494553,0.00287897139787674,0,
00:00:01.858,-0.00116275995969772,0.00288116186857224,0,
00:00:01.859,-0.00116613507270813,0.00288496166467667,0,
00:00:01.86,-0.0011657327413559,0.002887062728405,0,
00:00:01.861,-0.00115951895713806,0.00288442522287369,0,
00:00:01.862,-0.00115359574556351,0.00288355350494385,0,
00:00:01.863,-0.0011470690369606,0.00288272649049759,0,
00:00:01.864,-0.00114583969116211,0.00288265943527222,0,
00:00:01.865,-0.00115057826042175,0.00288167595863342,0,
00:00:01.866,-0.00115200877189636,0.00288261473178864,0,
00:00:01.867,-0.00115343928337097,0.00288277119398117,0,
00:00:01.868,-0.00115618854761124,0.00288096070289612,0,
00:00:01.869,-0.00115862488746643,0.00288198888301849,0,
00:00:01.87,-0.00116200000047684,0.00288216769695282,0,
00:00:01.871,-0.00116311758756638,0.00288089364767075,0,
00:00:01.872,-0.00116242468357086,0.00287939608097076,0,
00:00:01.873,-0.00116398930549622,0.00287997722625732,0,
00:00:01.874,-0.00116255879402161,0.00287850201129913,0,
00:00:01.875,-0.0011579766869545,0.0028780996799469,0,
00:00:01.876,-0.00115804374217987,0.00288156419992447,0,
00:00:01.877,-0.00116267055273056,0.00288261473178864,0,
00:00:01.878,-0.00116383284330368,0.0028822124004364,0,
00:00:01.879,-0.00116316229104996,0.0028829500079155,0,
00:00:01.88,-0.00116792321205139,0.00288735330104828,0,
00:00:01.881,-0.00116926431655884,0.00288377702236176,0,
00:00:01.882,-0.00116953253746033,0.00287758558988571,0,
00:00:01.883,-0.00117049366235733,0.00287727266550064,0,
00:00:01.884,-0.00117042660713196,0.00287396460771561,0,
00:00:01.885,-0.00116834789514542,0.00286978483200073,0,
00:00:01.886,-0.00116396695375443,0.00286893546581268,0,
00:00:01.887,-0.00116186589002609,0.00286826491355896,0,
00:00:01.888,-0.0011632964015007,0.00286788493394852,0,
00:00:01.889,-0.00116472691297531,0.0028715506196022,0,
00:00:01.89,-0.00116555392742157,0.0028747022151947,0,
00:00:01.891,-0.00116597861051559,0.0028776079416275,0,
00:00:01.892,-0.00116367638111115,0.00288583338260651,0,
00:00:01.893,-0.00116242468357086,0.00289240479469299,0,
00:00:01.894,-0.0011649951338768,0.00289137661457062,0,
00:00:01.895,-0.00116600096225739,0.00289531052112579,0,
00:00:01.896,-0.0011666938662529,0.00289821624755859,0,
00:00:01.897,-0.00117027014493942,0.00289405882358551,0,
00:00:01.898,-0.00117335468530655,0.00288847088813782,0,
00:00:01.899,-0.00117344409227371,0.0028846263885498,0,
00:00:01.9,-0.00117192417383194,0.00288388878107071,0,
00:00:01.901,-0.00116796791553497,0.00288663804531097,0,
00:00:01.902,-0.00116624683141708,0.00288797914981842,0,
00:00:01.903,-0.00116787850856781,0.00288974493741989,0,
00:00:01.904,-0.00116816908121109,0.00289231538772583,0,
00:00:01.905,-0.00116736441850662,0.00289524346590042,0,
00:00:01.906,-0.00116609036922455,0.00289691984653473,0,
00:00:01.907,-0.00116591155529022,0.00289660692214966,0,
00:00:01.908,-0.00116696208715439,0.00289575755596161,0,
00:00:01.909,-0.001169353723526,0.00289479643106461,0,
00:00:01.91,-0.0011722594499588,0.00289307534694672,0,
00:00:01.911,-0.00116921961307526,0.00289256125688553,0,
00:00:01.912,-0.0011628270149231,0.00289267301559448,0,
00:00:01.913,-0.00116622447967529,0.00289128720760345,0,
00:00:01.914,-0.00117136538028717,0.00288978964090347,0,
00:00:01.915,-0.00117411464452744,0.00289173424243927,0,
00:00:01.916,-0.00117449462413788,0.00289307534694672,0,
00:00:01.917,-0.00117290765047073,0.00288981199264526,0,
00:00:01.918,-0.0011717900633812,0.0028834193944931,0,
00:00:01.919,-0.00117246061563492,0.00287792086601257,0,
00:00:01.92,-0.00117301940917969,0.00287463515996933,0,
00:00:01.921,-0.00116971135139465,0.00287443399429321,0,
00:00:01.922,-0.00116825848817825,0.00287523865699768,0,
00:00:01.923,-0.00117087364196777,0.00287776440382004,0,
00:00:01.924,-0.00117398053407669,0.00288203358650208,0,
00:00:01.925,-0.00117094069719315,0.0028829500079155,0,
00:00:01.926,-0.00116794556379318,0.00288525223731995,0,
00:00:01.927,-0.00117047131061554,0.00288780033588409,0,
00:00:01.928,-0.00116767734289169,0.00288782268762589,0,
00:00:01.929,-0.00116322934627533,0.00288712978363037,0,
00:00:01.93,-0.00116642564535141,0.00288670510053635,0,
00:00:01.931,-0.00116875022649765,0.0028824582695961,0,
00:00:01.932,-0.00116785615682602,0.00287787616252899,0,
00:00:01.933,-0.00116924196481705,0.00287778675556183,0,
00:00:01.934,-0.00117114186286926,0.00288370996713638,0,
00:00:01.935,-0.00117230415344238,0.00289146602153778,0,
00:00:01.936,-0.00117688626050949,0.002895288169384,0,
00:00:01.937,-0.00118484348058701,0.0028977245092392,0,
00:00:01.938,-0.00118953734636307,0.00289792567491531,0,
00:00:01.939,-0.00119112432003021,0.0028960257768631,0,
00:00:01.94,-0.0011923760175705,0.00289618223905563,0,
00:00:01.941,-0.00119304656982422,0.00289629399776459,0,
00:00:01.942,-0.00119467824697495,0.00289294123649597,0,
00:00:01.943,-0.00119452178478241,0.00288804620504379,0,
00:00:01.944,-0.0011809766292572,0.00288424640893936,0,
00:00:01.945,-0.00115828961133957,0.00288444757461548,0,
00:00:01.946,-0.0011582225561142,0.00288641452789307,0,
00:00:01.947,-0.00117087364196777,0.0028848722577095,0,
00:00:01.948,-0.00117769092321396,0.00288272649049759,0,
00:00:01.949,-0.00117784738540649,0.00287986546754837,0,
00:00:01.95,-0.00117360055446625,0.00287953019142151,0,
00:00:01.951,-0.00116913020610809,0.00288082659244537,0,
00:00:01.952,-0.00116649270057678,0.00287935137748718,0,
00:00:01.953,-0.00116689503192902,0.0028788149356842,0,
00:00:01.954,-0.00117067247629166,0.00288274884223938,0,
00:00:01.955,-0.00117281824350357,0.00288659334182739,0,
00:00:01.956,-0.00117507576942444,0.00289126485586166,0,
00:00:01.957,-0.00117574632167816,0.00289575755596161,0,
00:00:01.958,-0.00117581337690353,0.00289669632911682,0,
00:00:01.959,-0.00117634981870651,0.00289417058229446,0,
00:00:01.96,-0.00117574632167816,0.00289285182952881,0,
00:00:01.961,-0.00117422640323639,0.00289589166641235,0,
00:00:01.962,-0.00117308646440506,0.00290047377347946,0,
00:00:01.963,-0.00117270648479462,0.00290154665708542,0,
00:00:01.964,-0.00117143243551254,0.00289971381425858,0,
00:00:01.965,-0.00117071717977524,0.00289897620677948,0,
00:00:01.966,-0.00117002427577972,0.00289830565452576,0,
00:00:01.967,-0.00117071717977524,0.00289729982614517,0,
00:00:01.968,-0.0011695995926857,0.00289586931467056,0,
00:00:01.969,-0.00116957724094391,0.00289653986692429,0,
00:00:01.97,-0.0011715441942215,0.00289535522460938,0,
00:00:01.971,-0.00117279589176178,0.00289604812860489,0,
00:00:01.972,-0.00117489695549011,0.00289678573608398,0,
00:00:01.973,-0.00117668509483337,0.00289618223905563,0,
00:00:01.974,-0.00117632746696472,0.00289584696292877,0,
00:00:01.975,-0.00116888433694839,0.00289931148290634,0,
00:00:01.976,-0.00116383284330368,0.00290456414222717,0,
00:00:01.977,-0.00116387754678726,0.00290872156620026,0,
00:00:01.978,-0.00116510689258575,0.00291050970554352,0,
00:00:01.979,-0.001168392598629,0.00290898978710175,0,
00:00:01.98,-0.00117158889770508,0.00290510058403015,0,
00:00:01.981,-0.00118046253919601,0.00290174782276154,0,
00:00:01.982,-0.00118781626224518,0.00289694219827652,0,
00:00:01.983,-0.00118645280599594,0.00289269536733627,0,
00:00:01.984,-0.00117804855108261,0.00289231538772583,0,
00:00:01.985,-0.00117391347885132,0.00289555639028549,0,
00:00:01.986,-0.00117255002260208,0.00289978086948395,0,
00:00:01.987,-0.00116953253746033,0.00290331244468689,0,
00:00:01.988,-0.00116899609565735,0.00290429592132568,0,
00:00:01.989,-0.00117239356040955,0.00290496647357941,0,
00:00:01.99,-0.00119031965732574,0.00290592759847641,0,
00:00:01.991,-0.00120621174573898,0.00290780514478683,0,
00:00:01.992,-0.00120348483324051,0.00290565937757492,0,
00:00:01.993,-0.0011952817440033,0.0028960257768631,0,
00:00:01.994,-0.00118406116962433,0.0028897225856781,0,
00:00:01.995,-0.00117333233356476,0.00288659334182739,0,
00:00:01.996,-0.00116463750600815,0.00288625806570053,0,
00:00:01.997,-0.00115708261728287,0.00288750976324081,0,
00:00:01.998,-0.00114993005990982,0.00288994610309601,0,
00:00:01.999,-0.00114715844392776,0.00289233773946762,0,
00:00:02,-0.00115218758583069,0.00289479643106461,0,
00:00:02.001,-0.00115761905908585,0.0029040053486824,0,
00:00:02.002,-0.00115714967250824,0.00291506946086884,0,
00:00:02.003,-0.00115538388490677,0.00291408598423004,0,
00:00:02.004,-0.00115098059177399,0.00290843099355698,0,
00:00:02.005,-0.00114767253398895,0.00290467590093613,0,
00:00:02.006,-0.00115209817886353,0.00290510058403015,0,
00:00:02.007,-0.00115598738193512,0.00290666520595551,0,
00:00:02.008,-0.00115996599197388,0.00291044265031815,0,
00:00:02.009,-0.00116271525621414,0.00291536003351212,0,
00:00:02.01,-0.00116490572690964,0.00292067974805832,0,
00:00:02.011,-0.00116747617721558,0.00292396545410156,0,
00:00:02.012,-0.00116897374391556,0.00292199850082397,0,
00:00:02.013,-0.00116890668869019,0.00292056798934937,0,
00:00:02.014,-0.00117100775241852,0.0029190257191658,0,
00:00:02.015,-0.0011712983250618,0.00291596353054047,0,
00:00:02.016,-0.00116711854934692,0.0029112696647644,0,
00:00:02.017,-0.00116635859012604,0.00290413945913315,0,
00:00:02.018,-0.00117013603448868,0.00289841741323471,0,
00:00:02.019,-0.00117252767086029,0.00289452821016312,0,
00:00:02.02,-0.00117382407188416,0.00289379060268402,0,
00:00:02.021,-0.00117116421461105,0.00289323180913925,0,
00:00:02.022,-0.00116783380508423,0.00289222598075867,0,
00:00:02.023,-0.00116685032844543,0.00289401412010193,0,
00:00:02.024,-0.00116327404975891,0.00289609283208847,0,
00:00:02.025,-0.00115965306758881,0.00289861857891083,0,
00:00:02.026,-0.00115902721881866,0.00290089845657349,0,
00:00:02.027,-0.00116036832332611,0.00290210545063019,0,
00:00:02.028,-0.00116414576768875,0.00290489941835403,0,
00:00:02.029,-0.00116611272096634,0.00291323661804199,0,
00:00:02.03,-0.00116707384586334,0.00291580706834793,0,
00:00:02.031,-0.00117120891809464,0.00291439890861511,0,
00:00:02.032,-0.00117684155702591,0.00291075557470322,0,
00:00:02.033,-0.00118149071931839,0.00290948152542114,0,
00:00:02.034,-0.00118354707956314,0.00290983915328979,0,
00:00:02.035,-0.00118327885866165,0.00291229784488678,0,
00:00:02.036,-0.00118368119001389,0.00291133671998978,0,
00:00:02.037,-0.00118010491132736,0.00291021913290024,0,
00:00:02.038,-0.0011761263012886,0.00291106849908829,0,
00:00:02.039,-0.00117239356040955,0.00291343778371811,0,
00:00:02.04,-0.00116830319166183,0.00291169434785843,0,
00:00:02.041,-0.00116278231143951,0.00290581583976746,0,
00:00:02.042,-0.00115911662578583,0.00290539115667343,0,
00:00:02.043,-0.00116065889596939,0.00290563702583313,0,
00:00:02.044,-0.00116179883480072,0.00290306657552719,0,
00:00:02.045,-0.00115976482629776,0.00290324538946152,0,
00:00:02.046,-0.00115802139043808,0.0029047429561615,0,
00:00:02.047,-0.0011536180973053,0.00290878862142563,0,
00:00:02.048,-0.00115252286195755,0.00290624052286148,0,
00:00:02.049,-0.00115580856800079,0.00290371477603912,0,
00:00:02.05,-0.00116215646266937,0.00290541350841522,0,
00:00:02.051,-0.00116396695375443,0.00290454179048538,0,
00:00:02.052,-0.00116510689258575,0.00290253013372421,0,
00:00:02.053,-0.00116852670907974,0.00290253013372421,0,
00:00:02.054,-0.00117456167936325,0.00290639698505402,0,
00:00:02.055,-0.00117377936840057,0.00291310250759125,0,
00:00:02.056,-0.00116968899965286,0.00291864573955536,0,
00:00:02.057,-0.00116237998008728,0.00292331725358963,0,
00:00:02.058,-0.00115916132926941,0.00292523950338364,0,
00:00:02.059,-0.0011645033955574,0.00292369723320007,0,
00:00:02.06,-0.00116647034883499,0.00292092561721802,0,
00:00:02.061,-0.00116320699453354,0.00291810929775238,0,
00:00:02.062,-0.00116099417209625,0.00291160494089127,0,
00:00:02.063,-0.00116041302680969,0.00291102379560471,0,
00:00:02.064,-0.00115998834371567,0.00291238725185394,0,
00:00:02.065,-0.00115980952978134,0.00290798395872116,0,
00:00:02.066,-0.00116097182035446,0.00290237367153168,0,
00:00:02.067,-0.0011679008603096,0.0029013454914093,0,
00:00:02.068,-0.00117071717977524,0.00290396064519882,0,
00:00:02.069,-0.00116579979658127,0.00290563702583313,0,
00:00:02.07,-0.00116714090108871,0.00290954858064651,0,
00:00:02.071,-0.00118200480937958,0.002914197742939,0,
00:00:02.072,-0.00119934976100922,0.00291475653648376,0,
00:00:02.073,-0.00120627880096436,0.00291189551353455,0,
00:00:02.074,-0.00120565295219421,0.00291120260953903,0,
00:00:02.075,-0.00119870156049728,0.0029115155339241,0,
00:00:02.076,-0.0011831670999527,0.00291498005390167,0,
00:00:02.077,-0.00118401646614075,0.00292365252971649,0,
00:00:02.078,-0.00118786096572876,0.00293082743883133,0,
00:00:02.079,-0.00116734206676483,0.00293015688657761,0,
00:00:02.08,-0.00114937126636505,0.00292570888996124,0,
00:00:02.081,-0.00113902240991592,0.00292246788740158,0,
00:00:02.082,-0.00112532079219818,0.00291719287633896,0,
00:00:02.083,-0.00112572312355042,0.00291270017623901,0,
00:00:02.084,-0.00113484263420105,0.00291100144386292,0,
00:00:02.085,-0.0011419951915741,0.00291247665882111,0,
00:00:02.086,-0.00114686787128448,0.00291665643453598,0,
00:00:02.087,-0.00115245580673218,0.00292099267244339,0,
00:00:02.088,-0.00115585327148438,0.00292092561721802,0,
00:00:02.089,-0.0011615976691246,0.00291835516691208,0,
00:00:02.09,-0.00117058306932449,0.00291808694601059,0,
00:00:02.091,-0.00117389112710953,0.00292506068944931,0,
00:00:02.092,-0.0011710524559021,0.00292910635471344,0,
00:00:02.093,-0.0011635422706604,0.00292825698852539,0,
00:00:02.094,-0.00115232169628143,0.00292597711086273,0,
00:00:02.095,-0.00114331394433975,0.00292687118053436,0,
00:00:02.096,-0.00114398449659348,0.00293098390102386,0,
00:00:02.097,-0.00114306807518005,0.00293438136577606,0,
00:00:02.098,-0.00114776194095612,0.00293002277612686,0,
00:00:02.099,-0.00115925073623657,0.00292765349149704,0,
00:00:02.1,-0.00116723030805588,0.00293681770563126,0,
00:00:02.101,-0.00116913020610809,0.00294580310583115,0,
00:00:02.102,-0.00115963071584702,0.00293916463851929,0,
00:00:02.103,-0.00115120410919189,0.00292624533176422,0,
00:00:02.104,-0.00114814192056656,0.00291258841753006,0,
00:00:02.105,-0.00114756077528,0.00289332121610641,0,
00:00:02.106,-0.00114364922046661,0.00287680327892303,0,
00:00:02.107,-0.00114494562149048,0.00286830961704254,0,
00:00:02.108,-0.00115010887384415,0.00286198407411575,0,
00:00:02.109,-0.00113620609045029,0.0028650239109993,0,
00:00:02.11,-0.00111796706914902,0.00287465751171112,0,
00:00:02.111,-0.00111515074968338,0.00289325416088104,0,
00:00:02.112,-0.00111497193574905,0.00292810052633286,0,
00:00:02.113,-0.00111503899097443,0.00296629965305328,0,
00:00:02.114,-0.00112587958574295,0.00298158824443817,0,
00:00:02.115,-0.00113998353481293,0.0029677078127861,0,
00:00:02.116,-0.00114838778972626,0.00295011699199677,0,
00:00:02.117,-0.00114809721708298,0.00294486433267593,0,
00:00:02.118,-0.00114693492650986,0.00295007228851318,0,
00:00:02.119,-0.00114919245243073,0.00295642018318176,0,
00:00:02.12,-0.00114693492650986,0.00296393036842346,0,
00:00:02.121,-0.00113390386104584,0.00296017527580261,0,
00:00:02.122,-0.00112558901309967,0.00296028703451157,0,
00:00:02.123,-0.00113166868686676,0.00296185165643692,0,
00:00:02.124,-0.00113911181688309,0.00296249985694885,0,
00:00:02.125,-0.00113081932067871,0.0029582753777504,0,
00:00:02.126,-0.0011347308754921,0.00294236093759537,0,
00:00:02.127,-0.00113817304372787,0.00292720645666122,0,
00:00:02.128,-0.00112898647785187,0.00292251259088516,0,
00:00:02.129,-0.00112136453390121,0.00292260199785233,0,
00:00:02.13,-0.00112668424844742,0.00291323661804199,0,
00:00:02.131,-0.00113099813461304,0.00290807336568832,0,
00:00:02.132,-0.0011344850063324,0.0029192715883255,0,
00:00:02.133,-0.00113417208194733,0.00292776525020599,0,
00:00:02.134,-0.00112923234701157,0.00292423367500305,0,
00:00:02.135,-0.00112929940223694,0.00291945040225983,0,
00:00:02.136,-0.00113099813461304,0.00292725116014481,0,
00:00:02.137,-0.00112878531217575,0.00294072926044464,0,
00:00:02.138,-0.00112594664096832,0.0029488205909729,0,
00:00:02.139,-0.00112509727478027,0.00294743478298187,0,
00:00:02.14,-0.00113638490438461,0.0029342919588089,0,
00:00:02.141,-0.00113426148891449,0.0029354989528656,0,
00:00:02.142,-0.00112295150756836,0.0029444620013237,0,
00:00:02.143,-0.00112062692642212,0.00292962044477463,0,
00:00:02.144,-0.00112165510654449,0.00292246788740158,0,
00:00:02.145,-0.00113026052713394,0.00293932110071182,0,
00:00:02.146,-0.00113620609045029,0.00295288860797882,0,
00:00:02.147,-0.00113560259342194,0.00294803828001022,0,
00:00:02.148,-0.00113911181688309,0.00294291973114014,0,
00:00:02.149,-0.00114785134792328,0.00293802469968796,0,
00:00:02.15,-0.00115442276000977,0.00292995572090149,0,
00:00:02.151,-0.00114402920007706,0.00292173027992249,0,
00:00:02.152,-0.00113439559936523,0.00291967391967773,0,
00:00:02.153,-0.00113265216350555,0.00292094796895981,0,
00:00:02.154,-0.00113421678543091,0.00292351841926575,0,
00:00:02.155,-0.00113868713378906,0.00292843580245972,0,
00:00:02.156,-0.00114445388317108,0.00292716175317764,0,
00:00:02.157,-0.00114183872938156,0.00292336195707321,0,
00:00:02.158,-0.00114203989505768,0.00291860103607178,0,
00:00:02.159,-0.00114613026380539,0.00292787700891495,0,
00:00:02.16,-0.00113296508789063,0.0029364600777626,0,
00:00:02.161,-0.00110922753810883,0.00294003635644913,0,
00:00:02.162,-0.00110431015491486,0.00293621420860291,0,
00:00:02.163,-0.00109747052192688,0.00293650478124619,0,
00:00:02.164,-0.00109101086854935,0.00294341146945953,0,
00:00:02.165,-0.0010853111743927,0.00294750183820724,0,
00:00:02.166,-0.00109771639108658,0.00294148921966553,0,
00:00:02.167,-0.00112630426883698,0.00293082743883133,0,
00:00:02.168,-0.00114282220602036,0.00292479246854782,0,
00:00:02.169,-0.00114049762487411,0.00291518121957779,0,
00:00:02.17,-0.00114051997661591,0.00290892273187637,0,
00:00:02.171,-0.00115524977445602,0.00290856510400772,0,
00:00:02.172,-0.00115683674812317,0.00291142612695694,0,
00:00:02.173,-0.00114262104034424,0.00292430073022842,0,
00:00:02.174,-0.00110100209712982,0.00293927639722824,0,
00:00:02.175,-0.00106456875801086,0.00294911116361618,0,
00:00:02.176,-0.00106613337993622,0.0029510110616684,0,
00:00:02.177,-0.00108841806650162,0.0029648020863533,0,
00:00:02.178,-0.00109487771987915,0.00296784192323685,0,
00:00:02.179,-0.0010991245508194,0.00295722484588623,0,
00:00:02.18,-0.00110529363155365,0.0029444620013237,0,
00:00:02.181,-0.00110625475645065,0.0029415562748909,0,
00:00:02.182,-0.00111237913370132,0.00293972343206406,0,
00:00:02.183,-0.00112395733594894,0.0029270276427269,0,
00:00:02.184,-0.00113437324762344,0.00292903929948807,0,
00:00:02.185,-0.00113028287887573,0.00293853878974915,0,
00:00:02.186,-0.00112038105726242,0.00294260680675507,0,
00:00:02.187,-0.00110361725091934,0.00294361263513565,0,
00:00:02.188,-0.00108736753463745,0.0029437243938446,0,
00:00:02.189,-0.00109127908945084,0.00293871760368347,0,
00:00:02.19,-0.00109034031629562,0.00292257964611053,0,
00:00:02.191,-0.00109648704528809,0.00290724635124207,0,
00:00:02.192,-0.00111725181341171,0.0028846263885498,0,
00:00:02.193,-0.00112579017877579,0.00286900252103806,0,
00:00:02.194,-0.00110971927642822,0.00286786258220673,0,
00:00:02.195,-0.00109802931547165,0.0028800442814827,0,
00:00:02.196,-0.00109253078699112,0.0028984397649765,0,
00:00:02.197,-0.00109624117612839,0.00291178375482559,0,
00:00:02.198,-0.00110498070716858,0.00293109565973282,0,
00:00:02.199,-0.00111827999353409,0.00293722003698349,0,
00:00:02.2,-0.00111068040132523,0.0029255747795105,0,
00:00:02.201,-0.00110265612602234,0.00291325896978378,0,
00:00:02.202,-0.00108848512172699,0.00289280712604523,0,
00:00:02.203,-0.00108569115400314,0.00288109481334686,0,
00:00:02.204,-0.00108493119478226,0.00287561863660812,0,
00:00:02.205,-0.00108452886343002,0.00288775563240051,0,
00:00:02.206,-0.00110064446926117,0.00290693342685699,0,
00:00:02.207,-0.00110985338687897,0.00294365733861923,0,
00:00:02.208,-0.00111369788646698,0.00298836082220078,0,
00:00:02.209,-0.00110931694507599,0.00301596522331238,0,
00:00:02.21,-0.00109932571649551,0.00302537530660629,0,
00:00:02.211,-0.00108955800533295,0.00303031504154205,0,
00:00:02.212,-0.00108464062213898,0.00300905853509903,0,
00:00:02.213,-0.0010872557759285,0.00299383699893951,0,
00:00:02.214,-0.0010964423418045,0.00297845900058746,0,
00:00:02.215,-0.00109673291444778,0.0029684454202652,0,
00:00:02.216,-0.00109785050153732,0.00296225398778915,0,
00:00:02.217,-0.00110922753810883,0.00295592844486237,0,
00:00:02.218,-0.00111443549394608,0.00294636189937592,0,
00:00:02.219,-0.00110717117786407,0.00294334441423416,0,
00:00:02.22,-0.00109431892633438,0.00294531136751175,0,
00:00:02.221,-0.0010753870010376,0.00294949114322662,0,
00:00:02.222,-0.00104887783527374,0.00294875353574753,0,
00:00:02.223,-0.00104691088199615,0.00295975059270859,0,
00:00:02.224,-0.00105848908424377,0.00296895951032639,0,
00:00:02.225,-0.00106329470872879,0.00295773893594742,0,
00:00:02.226,-0.00106041133403778,0.00294553488492966,0,
00:00:02.227,-0.0010591596364975,0.00293775647878647,0,
00:00:02.228,-0.00106599926948547,0.00294077396392822,0,
00:00:02.229,-0.00106365233659744,0.00295838713645935,0,
00:00:02.23,-0.00106742978096008,0.00297454744577408,0,
00:00:02.231,-0.00107384473085403,0.00297387689352036,0,
00:00:02.232,-0.00106043368577957,0.00296386331319809,0,
00:00:02.233,-0.0010465532541275,0.00296732783317566,0,
00:00:02.234,-0.00104118883609772,0.00297090411186218,0,
00:00:02.235,-0.00104648619890213,0.00296028703451157,0,
00:00:02.236,-0.00106575340032578,0.00295409560203552,0,
00:00:02.237,-0.00108305364847183,0.00295970588922501,0,
00:00:02.238,-0.00107558816671371,0.00297342985868454,0,
00:00:02.239,-0.00106649100780487,0.00297727435827255,0,
00:00:02.24,-0.00105974078178406,0.00296129286289215,0,
00:00:02.241,-0.00105278939008713,0.00295353680849075,0,
00:00:02.242,-0.00103839486837387,0.00295152515172958,0,
00:00:02.243,-0.00104530155658722,0.0029439702630043,0,
00:00:02.244,-0.00106718391180038,0.00293780118227005,0,
00:00:02.245,-0.00108645111322403,0.0029393658041954,0,
00:00:02.246,-0.00110556185245514,0.00294654071331024,0,
00:00:02.247,-0.00108723342418671,0.00295581668615341,0,
00:00:02.248,-0.00107661634683609,0.00296638906002045,0,
00:00:02.249,-0.00107433646917343,0.00296623259782791,0,
00:00:02.25,-0.00105837732553482,0.00296292454004288,0,
00:00:02.251,-0.00102934241294861,0.00297224521636963,0,
00:00:02.252,-0.00101756304502487,0.00298896431922913,0,
00:00:02.253,-0.00101890414953232,0.00297079235315323,0,
00:00:02.254,-0.00101387500762939,0.0029490664601326,0,
00:00:02.255,-0.00103779137134552,0.00293824821710587,0,
00:00:02.256,-0.00107002258300781,0.00292836874723434,0,
00:00:02.257,-0.00107793509960175,0.00291397422552109,0,
00:00:02.258,-0.0010741800069809,0.00291178375482559,0,
00:00:02.259,-0.00104834139347076,0.002922423183918,0,
00:00:02.26,-0.00104503333568573,0.00292709469795227,0,
00:00:02.261,-0.00107091665267944,0.0029451996088028,0,
00:00:02.262,-0.00108645111322403,0.00296218693256378,0,
00:00:02.263,-0.00108560174703598,0.00295648723840714,0,
00:00:02.264,-0.00106392055749893,0.00295939296483994,0,
00:00:02.265,-0.00106003135442734,0.00297394394874573,0,
00:00:02.266,-0.00106749683618546,0.0029803141951561,0,
00:00:02.267,-0.00107614696025848,0.00297600030899048,0,
00:00:02.268,-0.00107114017009735,0.00297631323337555,0,
00:00:02.269,-0.00107422471046448,0.00299126654863358,0,
00:00:02.27,-0.00106620043516159,0.0029754638671875,0,
00:00:02.271,-0.00103557854890823,0.00294008105993271,0,
00:00:02.272,-0.00101682543754578,0.00290409475564957,0,
00:00:02.273,-0.00100187212228775,0.0028814971446991,0,
00:00:02.274,-0.00100748240947723,0.00286663323640823,0,
00:00:02.275,-0.00103408098220825,0.00288616865873337,0,
00:00:02.276,-0.00101776421070099,0.00292322784662247,0,
00:00:02.277,-0.00101087987422943,0.00295107811689377,0,
00:00:02.278,-0.00101830065250397,0.00296089053153992,0,
00:00:02.279,-0.00101324915885925,0.00297222286462784,0,
00:00:02.28,-0.00101429969072342,0.00298657268285751,0,
00:00:02.281,-0.00105614215135574,0.00299486517906189,0,
00:00:02.282,-0.0010683462023735,0.00299285352230072,0,
00:00:02.283,-0.00105080008506775,0.00299938023090363,0,
00:00:02.284,-0.00104156881570816,0.00302403420209885,0,
00:00:02.285,-0.00105524808168411,0.00304504483938217,0,
00:00:02.286,-0.00104988366365433,0.00304169207811356,0,
00:00:02.287,-0.00104380398988724,0.0030025988817215,0,
00:00:02.288,-0.00102444738149643,0.00295141339302063,0,
00:00:02.289,-0.00100374966859818,0.00293699651956558,0,
00:00:02.29,-0.00101049989461899,0.0029444620013237,0,
00:00:02.291,-0.00102753192186356,0.00296207517385483,0,
00:00:02.292,-0.00103155523538589,0.00296978652477264,0,
00:00:02.293,-0.00105833262205124,0.00296855717897415,0,
00:00:02.294,-0.00106188654899597,0.00295514613389969,0,
00:00:02.295,-0.00105350464582443,0.00296705961227417,0,
00:00:02.296,-0.00106117129325867,0.00299303233623505,0,
00:00:02.297,-0.00106693804264069,0.00299694389104843,0,
00:00:02.298,-0.00102940946817398,0.00298739969730377,0,
00:00:02.299,-0.00100900232791901,0.00298140943050385,0,
00:00:02.3,-0.00103387981653214,0.00294549018144608,0,
00:00:02.301,-0.00105131417512894,0.00293438136577606,0,
00:00:02.302,-0.00104603916406631,0.00293587893247604,0,
00:00:02.303,-0.00104087591171265,0.00295159220695496,0,
00:00:02.304,-0.00102400034666061,0.00297772139310837,0,
00:00:02.305,-0.00103649497032166,0.00298525393009186,0,
00:00:02.306,-0.00101318210363388,0.00296692550182343,0,
00:00:02.307,-0.000995703041553497,0.00295179337263107,0,
00:00:02.308,-0.000989533960819244,0.00294218212366104,0,
00:00:02.309,-0.000976905226707459,0.00294303148984909,0,
00:00:02.31,-0.000992059707641602,0.00297895073890686,0,
00:00:02.311,-0.00103519856929779,0.00300092250108719,0,
00:00:02.312,-0.00103273987770081,0.00300456583499908,0,
00:00:02.313,-0.00104101002216339,0.00301326066255569,0,
00:00:02.314,-0.00105793029069901,0.0030016154050827,0,
00:00:02.315,-0.00108104199171066,0.00296017527580261,0,
00:00:02.316,-0.00107335299253464,0.0029171034693718,0,
00:00:02.317,-0.00104333460330963,0.00290603935718536,0,
00:00:02.318,-0.00102502852678299,0.00291822105646133,0,
00:00:02.319,-0.000991880893707275,0.00293771177530289,0,
00:00:02.32,-0.000981755554676056,0.00295087695121765,0,
00:00:02.321,-0.000973396003246307,0.00296605378389359,0,
00:00:02.322,-0.00098651647567749,0.00296773016452789,0,
00:00:02.323,-0.00100531429052353,0.00297638028860092,0,
00:00:02.324,-0.00101517140865326,0.00299376994371414,0,
00:00:02.325,-0.00104362517595291,0.00301424413919449,0,
